"sep=	"
Shimmer_5DF7_Timestamp_Unix_CAL	Shimmer_5DF7_GSR_Range_CAL	Shimmer_5DF7_GSR_Skin_Conductance_CAL	Shimmer_5DF7_GSR_Skin_Resistance_CAL	Shimmer_5DF7_PPG_A13_CAL	Shimmer_5DF7_Pressure_BMP280_CAL	Shimmer_5DF7_Temperature_BMP280_CAL	
ms	no_units	uS	kOhms	mV	kPa	Degrees Celsius	
1.5815298772302246E12	3.0	0.8828948828948829	1132.6376665828514	953.8461538461538	99.58599788101023	25.88470908967429	
1.5815298772497559E12	3.0	0.8828948828948829	1132.6376665828514	958.9743589743589	99.58330281353926	25.88470908967429	
1.581529877269287E12	0.0	5.521841342736867	181.09900990099004	962.6373626373626	99.58599788101023	25.88470908967429	
1.5815298772888184E12	0.0	5.521841342736867	181.09900990099004	975.091575091575	99.57521762613705	25.88470908967429	
1.5815298773083496E12	0.0	5.521841342736867	181.09900990099004	1175.0915750915751	99.58060774857007	25.88470908967429	
1.5815298773278809E12	0.0	5.521841342736867	181.09900990099004	1279.120879120879	99.57521762613705	25.88470908967429	
1.581529877347412E12	0.0	5.521841342736867	181.09900990099004	1355.3113553113553	99.58060774857007	25.88470908967429	
1.5815298773669434E12	1.0	5.587675970951233	178.96528095020557	1400.0	99.58060774857007	25.88470908967429	
1.5815298773864746E12	1.0	5.551939349848757	180.11724137931034	1419.047619047619	99.57791268610268	25.88470908967429	
1.5815298774060059E12	1.0	5.403887633852789	185.0519603212093	1416.8498168498168	99.57791268610268	25.88470908967429	
1.581529877425537E12	1.0	5.317098696889637	188.0724915986558	1370.6959706959706	99.57791268610268	25.88470908967429	
1.5815298774450684E12	1.0	5.281362075787163	189.3450942484292	1324.5421245421244	99.57521762613705	25.88470908967429	
1.5815298774645996E12	1.0	5.2405202230986205	190.82075012177302	1294.5054945054944	99.57521762613705	25.88470908967429	
1.5815298774841309E12	1.0	5.194573138824009	192.5085995085995	1268.8644688644688	99.57521762613705	25.88470908967429	
1.581529877503662E12	1.0	5.174152212479739	193.26837691169214	1243.2234432234432	99.57791268610268	25.88470908967429	
1.5815298775231934E12	1.0	5.158836517721535	193.8421573478476	1226.3736263736264	99.57791268610268	25.88470908967429	
1.5815298775427246E12	1.0	5.153731286135468	194.03417533432392	1215.3846153846152	99.57791268610268	25.88470908967429	
1.5815298775622559E12	1.0	5.143520822963333	194.41935483870967	1207.3260073260074	99.57521762613705	25.88470908967429	
1.581529877581787E12	1.0	5.117994665032993	195.38902743142143	1202.197802197802	99.57521762613705	25.88470908967429	
1.5815298776013184E12	1.0	5.07715281234445	196.96078431372547	1194.8717948717947	99.57521762613705	25.88470908967429	
1.5815298776208496E12	1.0	5.046521422828044	198.1562974203338	1181.6849816849815	99.5725225686732	25.88470908967429	
1.5815298776403809E12	1.0	5.015890033311637	199.36641221374043	1170.6959706959706	99.5725225686732	25.88470908967429	
1.581529877659912E12	1.0	4.995469106967365	200.18140010219727	1157.5091575091574	99.57521762613705	25.88470908967429	
1.5815298776794434E12	1.0	4.959732485864889	201.62377766340714	1297.4358974358975	99.56443741129229	25.88470908967429	
1.5815298776989746E12	1.0	4.949522022692754	202.03971119133575	1353.113553113553	99.57521762613705	25.88470908967429	
1.5815298777185059E12	1.0	4.949522022692754	202.03971119133575	1376.5567765567764	99.5725225686732	25.88470908967429	
1.581529877738037E12	1.0	4.949522022692754	202.03971119133575	1388.278388278388	99.56982751371112	25.88470908967429	
1.5815298777575684E12	1.0	4.944416791106685	202.24832214765104	1394.139194139194	99.5725225686732	25.88470908967429	
1.5815298777770996E12	1.0	4.913785401590279	203.50909090909093	1399.2673992673992	99.56443741129229	25.88470908967429	
1.5815298777966309E12	1.0	4.903574938418143	203.93284747527332	1390.4761904761904	99.56443741129229	25.88470908967429	
1.581529877816162E12	1.0	4.903574938418143	203.93284747527332	1383.8827838827838	99.55904731888056	25.88470908967429	
1.5815298778356934E12	1.0	4.903574938418143	203.93284747527332	1380.952380952381	99.56174236383553	25.88470908967429	
1.5815298778552246E12	1.0	4.903574938418143	203.93284747527332	1380.2197802197802	99.56443741129229	25.88470908967429	
1.5815298778747559E12	1.0	4.903574938418143	203.93284747527332	1379.4871794871794	99.56174236383553	25.88470908967429	
1.581529877894287E12	1.0	4.903574938418143	203.93284747527332	1379.4871794871794	99.56982751371112	25.88470908967429	
1.5815298779138184E12	1.0	4.903574938418143	203.93284747527332	1379.4871794871794	99.56982751371112	25.88470908967429	
1.5815298779333496E12	1.0	4.903574938418143	203.93284747527332	1378.7545787545787	99.56443741129229	25.88470908967429	
1.5815298779528809E12	1.0	4.908680170004212	203.7207488299532	1378.7545787545787	99.56443741129229	25.88470908967429	
1.581529877972412E12	1.0	4.908680170004212	203.7207488299532	1378.021978021978	99.56174236383553	25.88470908967429	
1.5815298779919434E12	1.0	4.908680170004212	203.7207488299532	1377.2893772893772	99.5725225686732	25.88470908967429	
1.5815298780114746E12	1.0	4.908680170004212	203.7207488299532	1377.2893772893772	99.56443741129229	25.88470908967429	
1.5815298780310059E12	1.0	4.908680170004212	203.7207488299532	1377.2893772893772	99.56174236383553	25.88470908967429	
1.581529878050537E12	1.0	4.908680170004212	203.7207488299532	1376.5567765567764	99.57521762613705	25.88470908967429	
1.5815298780700684E12	1.0	4.918890633176347	203.29787234042556	1377.2893772893772	99.56982751371112	25.88470908967429	
1.5815298780895996E12	1.0	4.918890633176347	203.29787234042556	1380.952380952381	99.56443741129229	25.88470908967429	
1.5815298781091309E12	1.0	4.923995864762415	203.08709175738727	1383.150183150183	99.56443741129229	25.88470908967429	
1.581529878128662E12	1.0	4.923995864762415	203.08709175738727	1387.5457875457876	99.56982751371112	25.88470908967429	
1.5815298781481934E12	1.0	4.918890633176347	203.29787234042556	1389.7435897435896	100.19496071628386	29.678195987507934	
1.5815298781677246E12	1.0	4.918890633176347	203.29787234042556	1387.5457875457876	100.19767243497924	29.678195987507934	
1.5815298781872559E12	1.0	4.913785401590279	203.50909090909093	1386.8131868131868	100.18953728648829	29.678195987507934	
1.581529878206787E12	1.0	4.908680170004212	203.7207488299532	1385.3479853479853	100.18682557538808	29.678195987507934	
1.5815298782263184E12	1.0	4.908680170004212	203.7207488299532	1380.952380952381	100.18953728648829	29.678195987507934	
1.5815298782458496E12	1.0	4.908680170004212	203.7207488299532	1379.4871794871794	100.18953728648829	29.678195987507934	
1.5815298782653809E12	1.0	4.908680170004212	203.7207488299532	1378.021978021978	100.18411386681959	29.678195987507934	
1.581529878284912E12	1.0	4.908680170004212	203.7207488299532	1378.021978021978	100.18411386681959	29.678195987507934	
1.5815298783044434E12	1.0	4.908680170004212	203.7207488299532	1377.2893772893772	100.18682557538808	29.678195987507934	
1.5815298783239746E12	1.0	4.903574938418143	203.93284747527332	1377.2893772893772	100.18953728648829	29.678195987507934	
1.5815298783435059E12	1.0	4.908680170004212	203.7207488299532	1378.7545787545787	100.18682557538808	29.678195987507934	
1.581529878363037E12	1.0	4.903574938418143	203.93284747527332	1378.021978021978	100.18682557538808	29.678195987507934	
1.5815298783825684E12	1.0	4.908680170004212	203.7207488299532	1378.7545787545787	100.18953728648829	29.678195987507934	
1.5815298784020996E12	1.0	4.908680170004212	203.7207488299532	1377.2893772893772	100.18682557538808	29.678195987507934	
1.5815298784216309E12	1.0	4.908680170004212	203.7207488299532	1378.021978021978	100.18953728648829	29.678195987507934	
1.581529878441162E12	1.0	4.908680170004212	203.7207488299532	1377.2893772893772	100.18953728648829	29.678195987507934	
1.5815298784606934E12	1.0	4.908680170004212	203.7207488299532	1378.021978021978	100.18682557538808	29.678195987507934	
1.5815298784802246E12	1.0	4.908680170004212	203.7207488299532	1377.2893772893772	100.18682557538808	29.678195987507934	
1.5815298784997559E12	1.0	4.908680170004212	203.7207488299532	1378.021978021978	100.18682557538808	29.678195987507934	
1.581529878519287E12	1.0	4.908680170004212	203.7207488299532	1377.2893772893772	100.18682557538808	29.678195987507934	
1.5815298785388184E12	1.0	4.908680170004212	203.7207488299532	1377.2893772893772	100.18411386681959	29.678195987507934	
1.5815298785583496E12	1.0	4.908680170004212	203.7207488299532	1377.2893772893772	100.18953728648829	29.678195987507934	
1.5815298785778809E12	1.0	4.908680170004212	203.7207488299532	1378.021978021978	100.18682557538808	29.678195987507934	
1.581529878597412E12	1.0	4.908680170004212	203.7207488299532	1377.2893772893772	100.18682557538808	29.678195987507934	
1.5815298786169434E12	1.0	4.908680170004212	203.7207488299532	1377.2893772893772	100.18682557538808	29.678195987507934	
1.5815298786364746E12	1.0	4.908680170004212	203.7207488299532	1378.021978021978	100.18411386681959	29.678195987507934	
1.5815298786560059E12	1.0	4.908680170004212	203.7207488299532	1377.2893772893772	100.18411386681959	29.678195987507934	
1.581529878675537E12	1.0	4.908680170004212	203.7207488299532	1377.2893772893772	100.18411386681959	29.678195987507934	
1.5815298786950684E12	1.0	4.908680170004212	203.7207488299532	1378.021978021978	100.18411386681959	29.678195987507934	
1.5815298787145996E12	1.0	4.903574938418143	203.93284747527332	1378.021978021978	100.18682557538808	29.678195987507934	
1.5815298787341309E12	1.0	4.903574938418143	203.93284747527332	1378.7545787545787	100.18411386681959	29.678195987507934	
1.581529878753662E12	1.0	4.903574938418143	203.93284747527332	1380.2197802197802	100.18411386681959	29.678195987507934	
1.5815298787731934E12	1.0	4.903574938418143	203.93284747527332	1380.2197802197802	100.18682557538808	29.678195987507934	
1.5815298787927246E12	1.0	4.903574938418143	203.93284747527332	1379.4871794871794	100.17869045727777	29.678195987507934	
1.5815298788122559E12	1.0	4.903574938418143	203.93284747527332	1380.2197802197802	100.18140216078282	29.678195987507934	
1.581529878831787E12	1.0	4.898469706832075	204.14538822303285	1380.2197802197802	100.18411386681959	29.678195987507934	
1.5815298788513184E12	1.0	4.878048780487805	205.0	1376.5567765567764	100.18140216078282	29.678195987507934	
1.5815298788708496E12	1.0	4.852522622557466	206.0783798001052	1368.4981684981683	100.18411386681959	29.678195987507934	
1.5815298788903809E12	1.0	4.791259843524652	208.71337240277037	1356.7765567765566	100.18411386681959	29.678195987507934	
1.581529878909912E12	1.0	4.755523222422177	210.2818035426731	1333.3333333333333	100.18411386681959	29.678195987507934	
1.5815298789294434E12	1.0	4.745312759250041	210.73426573426573	1309.89010989011	100.18411386681959	29.678195987507934	
1.5815298789489746E12	1.0	4.740207527663974	210.96122778675283	1293.7728937728937	100.18411386681959	29.678195987507934	
1.5815298789685059E12	1.0	4.740207527663974	210.96122778675283	1287.9120879120878	100.18411386681959	29.678195987507934	
1.581529878988037E12	1.0	4.735102296077907	211.188679245283	1284.9816849816848	100.18411386681959	29.678195987507934	
1.5815298790075684E12	1.0	4.735102296077907	211.188679245283	1279.8534798534797	100.18411386681959	29.678195987507934	
1.5815298790270996E12	1.0	4.735102296077907	211.188679245283	1277.6556776556777	100.18140216078282	29.678195987507934	
1.5815298790466309E12	1.0	4.735102296077907	211.188679245283	1276.1904761904761	100.18953728648829	29.678195987507934	
1.581529879066162E12	1.0	4.735102296077907	211.188679245283	1275.4578754578754	100.18682557538808	29.678195987507934	
1.5815298790856934E12	1.0	4.735102296077907	211.188679245283	1275.4578754578754	100.18140216078282	29.678195987507934	
1.5815298791052246E12	1.0	4.740207527663974	210.96122778675283	1275.4578754578754	100.18411386681959	29.678195987507934	
1.5815298791247559E12	1.0	4.740207527663974	210.96122778675283	1278.3882783882782	100.18411386681959	29.678195987507934	
1.581529879144287E12	1.0	4.745312759250041	210.73426573426573	1279.8534798534797	100.18899079044957	29.707756303210044	
1.5815298791638184E12	1.0	4.745312759250041	210.73426573426573	1279.120879120879	100.18356712099624	29.707756303210044	
1.5815298791833496E12	1.0	4.750417990836109	210.5077915099409	1278.3882783882782	100.18627895445692	29.707756303210044	
1.5815298792028809E12	1.0	4.750417990836109	210.5077915099409	1281.3186813186812	100.18627895445692	29.707756303210044	
1.581529879222412E12	1.0	4.750417990836109	210.5077915099409	1282.7838827838827	100.18899079044957	29.707756303210044	
1.5815298792419434E12	1.0	4.745312759250041	210.73426573426573	1283.5164835164835	100.18627895445692	29.707756303210044	
1.5815298792614746E12	1.0	4.745312759250041	210.73426573426573	1280.5860805860805	100.18899079044957	29.707756303210044	
1.5815298792810059E12	1.0	4.740207527663974	210.96122778675283	1279.120879120879	100.19170262897416	29.707756303210044	
1.581529879300537E12	1.0	4.750417990836109	210.5077915099409	1280.5860805860805	100.18899079044957	29.707756303210044	
1.5815298793200684E12	1.0	4.760628454008245	210.05630026809652	1282.7838827838827	100.1944144700307	29.707756303210044	
1.5815298793395996E12	1.0	4.765733685594314	209.83128012854846	1287.179487179487	100.18356712099624	29.707756303210044	
1.5815298793591309E12	1.0	4.770838917180381	209.6067415730337	1289.3772893772893	100.18627895445692	29.707756303210044	
1.581529879378662E12	1.0	4.781049380352517	209.15910304324612	1294.5054945054944	100.18899079044957	29.707756303210044	
1.5815298793981934E12	1.0	4.786154611938584	208.936	1300.3663003663003	100.19170262897416	29.707756303210044	
1.5815298794177246E12	1.0	4.821891233041058	207.38750661725783	1302.5641025641025	100.18899079044957	29.707756303210044	
1.5815298794372559E12	1.0	4.837206927799262	206.73087071240107	1316.4835164835165	100.19170262897416	29.707756303210044	
1.581529879456787E12	1.0	4.832101696213194	206.94928684627575	1326.007326007326	100.18899079044957	29.707756303210044	
1.5815298794763184E12	1.0	4.826996464627126	207.1681649920677	1329.6703296703297	100.18627895445692	29.707756303210044	
1.5815298794958496E12	1.0	4.81678600145499	207.6073131955485	1328.937728937729	100.18899079044957	29.707756303210044	
1.5815298795153809E12	1.0	4.81678600145499	207.6073131955485	1326.7399267399267	100.18356712099624	29.707756303210044	
1.581529879534912E12	1.0	4.821891233041058	207.38750661725783	1325.2747252747251	100.18356712099624	29.707756303210044	
1.5815298795544434E12	1.0	4.826996464627126	207.1681649920677	1328.937728937729	100.18085529006753	29.707756303210044	
1.5815298795739746E12	1.0	4.837206927799262	206.73087071240107	1328.2051282051282	100.18085529006753	29.707756303210044	
1.5815298795935059E12	1.0	4.847417390971398	206.29541864139023	1331.8681318681317	100.18356712099624	29.707756303210044	
1.581529879613037E12	1.0	4.852522622557466	206.0783798001052	1335.5311355311355	100.18627895445692	29.707756303210044	
1.5815298796325684E12	1.0	4.847417390971398	206.29541864139023	1340.6593406593406	100.18627895445692	29.707756303210044	
1.5815298796520996E12	1.0	4.852522622557466	206.0783798001052	1339.9267399267399	100.17814346167076	29.707756303210044	
1.5815298796716309E12	1.0	4.9546272542788214	201.8315301391036	1342.8571428571427	100.18627895445692	29.707756303210044	
1.581529879691162E12	1.0	4.959732485864889	201.62377766340714	1377.2893772893772	100.18627895445692	29.707756303210044	
1.5815298797106934E12	1.0	4.9648377174509575	201.4164524421594	1394.139194139194	100.18085529006753	29.707756303210044	
1.5815298797302246E12	1.0	4.980153412209161	200.79702716555616	1405.8608058608058	100.18356712099624	29.707756303210044	
1.5815298797497559E12	1.0	5.046521422828044	198.1562974203338	1415.3846153846152	100.18899079044957	29.707756303210044	
1.581529879769287E12	1.0	5.072047580758383	197.1590337191746	1287.179487179487	100.18085529006753	29.707756303210044	
1.5815298797888184E12	1.0	5.072047580758383	197.1590337191746	1227.8388278388277	100.18627895445692	29.707756303210044	
1.5815298798083496E12	1.0	5.072047580758383	197.1590337191746	1197.8021978021977	100.18627895445692	29.707756303210044	
1.5815298798278809E12	1.0	5.1026789702747894	195.97548774387192	1182.4175824175823	100.18356712099624	29.707756303210044	
1.581529879847412E12	1.0	5.12309989661906	195.19431988041853	1183.150183150183	100.18899079044957	29.707756303210044	
1.5815298798669434E12	1.0	5.133310359791197	194.80606663351566	1187.5457875457876	100.18085529006753	29.707756303210044	
1.5815298798864746E12	1.0	5.138415591377265	194.61251862891206	1189.7435897435896	100.18356712099624	29.707756303210044	
1.5815298799060059E12	1.0	5.138415591377265	194.61251862891206	1194.1391941391942	100.17814346167076	29.707756303210044	
1.581529879925537E12	1.0	5.133310359791197	194.80606663351566	1196.3369963369962	100.18356712099624	29.707756303210044	
1.5815298799450684E12	1.0	5.133310359791197	194.80606663351566	1194.8717948717947	100.17814346167076	29.707756303210044	
1.5815298799645996E12	1.0	5.133310359791197	194.80606663351566	1193.4065934065934	100.18627895445692	29.707756303210044	
1.5815298799841309E12	1.0	5.128205128205129	195.0	1192.6739926739926	100.18627895445692	29.707756303210044	
1.581529880003662E12	1.0	5.133310359791197	194.80606663351566	1194.8717948717947	100.18627895445692	29.707756303210044	
1.5815298800231934E12	1.0	5.128205128205129	195.0	1194.1391941391942	100.17814346167076	29.707756303210044	
1.5815298800427246E12	1.0	5.128205128205129	195.0	1195.6043956043954	100.18627895445692	29.707756303210044	
1.5815298800622559E12	1.0	5.117994665032993	195.38902743142143	1195.6043956043954	100.17814346167076	29.707756303210044	
1.581529880081787E12	1.0	5.12309989661906	195.19431988041853	1192.6739926739926	100.18356712099624	29.707756303210044	
1.5815298801013184E12	1.0	5.092468507102654	196.36842105263156	1191.9413919413919	100.18356712099624	29.707756303210044	
1.5815298801208496E12	1.0	5.092468507102654	196.36842105263156	1183.150183150183	100.17814346167076	29.707756303210044	
1.5815298801403809E12	1.0	5.092468507102654	196.36842105263156	1178.7545787545787	100.18301996060063	29.737316629389532	
1.581529880159912E12	1.0	5.087363275516586	196.5654791771199	1176.5567765567764	100.1911558432579	29.737316629389532	
1.5815298801794434E12	1.0	5.092468507102654	196.36842105263156	1178.021978021978	100.18844387983997	29.737316629389532	
1.5815298801989746E12	1.0	5.087363275516586	196.5654791771199	1176.5567765567764	100.18301996060063	29.737316629389532	
1.5815298802185059E12	1.0	5.087363275516586	196.5654791771199	1177.2893772893772	100.1911558432579	29.737316629389532	
1.581529880238037E12	1.0	5.087363275516586	196.5654791771199	1178.021978021978	100.18844387983997	29.737316629389532	
1.5815298802575684E12	1.0	5.082258043930518	196.76293319939728	1178.021978021978	100.18573191895422	29.737316629389532	
1.5815298802770996E12	1.0	5.082258043930518	196.76293319939728	1175.8241758241757	100.19386780920804	29.737316629389532	
1.5815298802966309E12	1.0	5.082258043930518	196.76293319939728	1173.6263736263736	100.18573191895422	29.737316629389532	
1.581529880316162E12	1.0	5.082258043930518	196.76293319939728	1172.8937728937728	100.1911558432579	29.737316629389532	
1.5815298803356934E12	1.0	5.082258043930518	196.76293319939728	1172.8937728937728	100.18844387983997	29.737316629389532	
1.5815298803552246E12	1.0	5.082258043930518	196.76293319939728	1172.161172161172	100.18573191895422	29.737316629389532	
1.5815298803747559E12	1.0	5.082258043930518	196.76293319939728	1172.161172161172	100.18844387983997	29.737316629389532	
1.581529880394287E12	1.0	5.082258043930518	196.76293319939728	1172.161172161172	100.18844387983997	29.737316629389532	
1.5815298804138184E12	1.0	5.082258043930518	196.76293319939728	1172.161172161172	100.1911558432579	29.737316629389532	
1.5815298804333496E12	1.0	5.082258043930518	196.76293319939728	1172.161172161172	100.18301996060063	29.737316629389532	
1.5815298804528809E12	1.0	5.07715281234445	196.96078431372547	1172.161172161172	100.1911558432579	29.737316629389532	
1.581529880472412E12	1.0	5.082258043930518	196.76293319939728	1171.4285714285713	100.18844387983997	29.737316629389532	
1.5815298804919434E12	1.0	5.082258043930518	196.76293319939728	1171.4285714285713	100.18573191895422	29.737316629389532	
1.5815298805114746E12	1.0	5.082258043930518	196.76293319939728	1172.161172161172	100.18844387983997	29.737316629389532	
1.5815298805310059E12	1.0	5.082258043930518	196.76293319939728	1172.161172161172	100.18573191895422	29.737316629389532	
1.581529880550537E12	1.0	5.082258043930518	196.76293319939728	1172.161172161172	100.18301996060063	29.737316629389532	
1.5815298805700684E12	1.0	5.082258043930518	196.76293319939728	1172.161172161172	100.18301996060063	29.737316629389532	
1.5815298805895996E12	1.0	5.082258043930518	196.76293319939728	1172.161172161172	100.18301996060063	29.737316629389532	
1.5815298806091309E12	1.0	5.082258043930518	196.76293319939728	1172.161172161172	100.18573191895422	29.737316629389532	
1.581529880628662E12	1.0	5.082258043930518	196.76293319939728	1172.161172161172	100.18301996060063	29.737316629389532	
1.5815298806481934E12	1.0	5.082258043930518	196.76293319939728	1172.161172161172	100.18573191895422	29.737316629389532	
1.5815298806677246E12	1.0	5.082258043930518	196.76293319939728	1172.161172161172	100.18844387983997	29.737316629389532	
1.5815298806872559E12	1.0	5.082258043930518	196.76293319939728	1172.161172161172	100.18844387983997	29.737316629389532	
1.581529880706787E12	1.0	5.07715281234445	196.96078431372547	1172.161172161172	100.18844387983997	29.737316629389532	
1.5815298807263184E12	1.0	5.07715281234445	196.96078431372547	1171.4285714285713	100.18844387983997	29.737316629389532	
1.5815298807458496E12	1.0	5.082258043930518	196.76293319939728	1171.4285714285713	100.18301996060063	29.737316629389532	
1.5815298807653809E12	1.0	5.082258043930518	196.76293319939728	1171.4285714285713	100.18844387983997	29.737316629389532	
1.581529880784912E12	1.0	5.087363275516586	196.5654791771199	1172.161172161172	100.18844387983997	29.737316629389532	
1.5815298808044434E12	1.0	5.082258043930518	196.76293319939728	1175.0915750915751	100.18030800477925	29.737316629389532	
1.5815298808239746E12	1.0	5.082258043930518	196.76293319939728	1173.6263736263736	100.18844387983997	29.737316629389532	
1.5815298808435059E12	1.0	5.087363275516586	196.5654791771199	1172.8937728937728	100.18301996060063	29.737316629389532	
1.581529880863037E12	1.0	5.087363275516586	196.5654791771199	1175.8241758241757	100.18573191895422	29.737316629389532	
1.5815298808825684E12	1.0	5.092468507102654	196.36842105263156	1177.2893772893772	100.17759605149006	29.737316629389532	
1.5815298809020996E12	1.0	5.092468507102654	196.36842105263156	1175.8241758241757	100.18301996060063	29.737316629389532	
1.5815298809216309E12	1.0	5.092468507102654	196.36842105263156	1175.0915750915751	100.18844387983997	29.737316629389532	
1.581529880941162E12	1.0	5.092468507102654	196.36842105263156	1174.3589743589744	100.18573191895422	29.737316629389532	
1.5815298809606934E12	1.0	5.092468507102654	196.36842105263156	1174.3589743589744	100.18301996060063	29.737316629389532	
1.5815298809802246E12	1.0	5.087363275516586	196.5654791771199	1174.3589743589744	100.18301996060063	29.737316629389532	
1.5815298809997559E12	1.0	5.087363275516586	196.5654791771199	1176.5567765567764	100.18030800477925	29.737316629389532	
1.581529881019287E12	1.0	5.087363275516586	196.5654791771199	1177.2893772893772	100.18030800477925	29.737316629389532	
1.5815298810388184E12	1.0	5.087363275516586	196.5654791771199	1178.021978021978	100.18030800477925	29.737316629389532	
1.5815298810583496E12	1.0	5.082258043930518	196.76293319939728	1178.021978021978	100.17759605149006	29.737316629389532	
1.5815298810778809E12	1.0	5.082258043930518	196.76293319939728	1175.0915750915751	100.18573191895422	29.737316629389532	
1.581529881097412E12	1.0	5.082258043930518	196.76293319939728	1173.6263736263736	100.18573191895422	29.737316629389532	
1.5815298811169434E12	1.0	5.082258043930518	196.76293319939728	1172.8937728937728	100.18301996060063	29.737316629389532	
1.5815298811364746E12	1.0	5.082258043930518	196.76293319939728	1172.8937728937728	100.18627101271086	29.75702351932996	
1.5815298811560059E12	1.0	5.082258043930518	196.76293319939728	1172.8937728937728	100.1916951052279	29.75702351932996	
1.581529881175537E12	1.0	5.082258043930518	196.76293319939728	1172.161172161172	100.1916951052279	29.75702351932996	
1.5815298811950684E12	1.0	5.066942349172315	197.35768261964733	1172.161172161172	100.18627101271086	29.75702351932996	
1.5815298812145996E12	1.0	5.082258043930518	196.76293319939728	1171.4285714285713	100.18898305770318	29.75702351932996	
1.5815298812341309E12	1.0	5.07715281234445	196.96078431372547	1171.4285714285713	100.18627101271086	29.75702351932996	
1.581529881253662E12	1.0	5.082258043930518	196.76293319939728	1172.161172161172	100.1916951052279	29.75702351932996	
1.5815298812731934E12	1.0	5.082258043930518	196.76293319939728	1171.4285714285713	100.19440715528492	29.75702351932996	
1.5815298812927246E12	1.0	5.07715281234445	196.96078431372547	1172.161172161172	100.1916951052279	29.75702351932996	
1.5815298813122559E12	1.0	5.07715281234445	196.96078431372547	1171.4285714285713	100.18898305770318	29.75702351932996	
1.581529881331787E12	1.0	5.07715281234445	196.96078431372547	1171.4285714285713	100.19983126299601	29.75702351932996	
1.5815298813513184E12	1.0	5.07715281234445	196.96078431372547	1171.4285714285713	100.18627101271086	29.75702351932996	
1.5815298813708496E12	1.0	5.07715281234445	196.96078431372547	1171.4285714285713	100.18355897025084	29.75702351932996	
1.5815298813903809E12	1.0	5.082258043930518	196.76293319939728	1171.4285714285713	100.18898305770318	29.75702351932996	
1.581529881409912E12	1.0	5.082258043930518	196.76293319939728	1172.161172161172	100.18627101271086	29.75702351932996	
1.5815298814294434E12	1.0	5.082258043930518	196.76293319939728	1172.161172161172	100.18898305770318	29.75702351932996	
1.5815298814489746E12	1.0	5.07715281234445	196.96078431372547	1172.161172161172	100.18355897025084	29.75702351932996	
1.5815298814685059E12	1.0	5.07715281234445	196.96078431372547	1172.161172161172	100.18355897025084	29.75702351932996	
1.581529881488037E12	1.0	5.07715281234445	196.96078431372547	1171.4285714285713	100.18355897025084	29.75702351932996	
1.5815298815075684E12	1.0	5.072047580758383	197.1590337191746	1171.4285714285713	100.18898305770318	29.75702351932996	
1.5815298815270996E12	1.0	5.07715281234445	196.96078431372547	1168.4981684981685	100.18084693032318	29.75702351932996	
1.5815298815466309E12	1.0	5.072047580758383	197.1590337191746	1169.9633699633698	100.18898305770318	29.75702351932996	
1.581529881566162E12	1.0	5.072047580758383	197.1590337191746	1167.7655677655678	100.1916951052279	29.75702351932996	
1.5815298815856934E12	1.0	5.07715281234445	196.96078431372547	1167.032967032967	100.18627101271086	29.75702351932996	
1.5815298816052246E12	1.0	5.082258043930518	196.76293319939728	1168.4981684981685	100.18355897025084	29.75702351932996	
1.5815298816247559E12	1.0	5.082258043930518	196.76293319939728	1170.6959706959706	100.1916951052279	29.75702351932996	
1.581529881644287E12	1.0	5.087363275516586	196.5654791771199	1171.4285714285713	100.18627101271086	29.75702351932996	
1.5815298816638184E12	1.0	5.087363275516586	196.5654791771199	1175.0915750915751	100.18355897025084	29.75702351932996	
1.5815298816833496E12	1.0	5.092468507102654	196.36842105263156	1176.5567765567764	100.18355897025084	29.75702351932996	
1.5815298817028809E12	1.0	5.097573738688721	196.17175763645466	1175.8241758241757	100.18627101271086	29.75702351932996	
1.581529881722412E12	1.0	5.092468507102654	196.36842105263156	1178.021978021978	100.18355897025084	29.75702351932996	
1.5815298817419434E12	1.0	5.097573738688721	196.17175763645466	1175.8241758241757	100.18627101271086	29.75702351932996	
1.5815298817614746E12	1.0	5.097573738688721	196.17175763645466	1178.021978021978	100.18627101271086	29.75702351932996	
1.5815298817810059E12	1.0	5.1026789702747894	195.97548774387192	1179.4871794871794	100.18084693032318	29.75702351932996	
1.581529881800537E12	1.0	5.107784201860857	195.77961019490255	1180.2197802197802	100.18627101271086	29.75702351932996	
1.5815298818200684E12	1.0	5.1026789702747894	195.97548774387192	1183.8827838827838	100.18355897025084	29.75702351932996	
1.5815298818395996E12	1.0	5.1026789702747894	195.97548774387192	1182.4175824175823	100.18627101271086	29.75702351932996	
1.5815298818591309E12	1.0	5.107784201860857	195.77961019490255	1182.4175824175823	100.18355897025084	29.75702351932996	
1.581529881878662E12	1.0	5.107784201860857	195.77961019490255	1185.3479853479853	100.18084693032318	29.75702351932996	
1.5815298818981934E12	1.0	5.112889433446925	195.58412381427857	1186.080586080586	100.18627101271086	29.75702351932996	
1.5815298819177246E12	1.0	5.107784201860857	195.77961019490255	1184.6153846153845	100.18627101271086	29.75702351932996	
1.5815298819372559E12	1.0	5.1026789702747894	195.97548774387192	1186.080586080586	100.18627101271086	29.75702351932996	
1.581529881956787E12	1.0	5.1026789702747894	195.97548774387192	1183.8827838827838	100.18898305770318	29.75702351932996	
1.5815298819763184E12	1.0	5.1026789702747894	195.97548774387192	1183.150183150183	100.18627101271086	29.75702351932996	
1.5815298819958496E12	1.0	5.097573738688721	196.17175763645466	1182.4175824175823	100.18084693032318	29.75702351932996	
1.5815298820153809E12	1.0	5.097573738688721	196.17175763645466	1181.6849816849815	100.18355897025084	29.75702351932996	
1.581529882034912E12	1.0	5.107784201860857	195.77961019490255	1180.952380952381	100.18084693032318	29.75702351932996	
1.5815298820544434E12	1.0	5.107784201860857	195.77961019490255	1184.6153846153845	100.18627101271086	29.75702351932996	
1.5815298820739746E12	1.0	5.107784201860857	195.77961019490255	1186.080586080586	100.18355897025084	29.75702351932996	
1.5815298820935059E12	1.0	5.107784201860857	195.77961019490255	1186.8131868131868	100.18627101271086	29.75702351932996	
1.581529882113037E12	1.0	5.107784201860857	195.77961019490255	1186.8131868131868	100.18627101271086	29.75702351932996	
1.5815298821325684E12	1.0	5.107784201860857	195.77961019490255	1187.5457875457876	100.1895221070646	29.776730413926998	
1.5815298821520996E12	1.0	5.1026789702747894	195.97548774387192	1187.5457875457876	100.1895221070646	29.776730413926998	
1.5815298821716309E12	1.0	5.107784201860857	195.77961019490255	1184.6153846153845	100.18680997796525	29.776730413926998	
1.581529882191162E12	1.0	5.107784201860857	195.77961019490255	1186.080586080586	100.19223423869646	29.776730413926998	
1.5815298822106934E12	1.0	5.112889433446925	195.58412381427857	1186.8131868131868	100.19223423869646	29.776730413926998	
1.5815298822302246E12	1.0	5.12309989661906	195.19431988041853	1185.3479853479853	100.18680997796525	29.776730413926998	
1.5815298822497559E12	1.0	5.12309989661906	195.19431988041853	1187.5457875457876	100.18680997796525	29.776730413926998	
1.581529882269287E12	1.0	5.133310359791197	194.80606663351566	1189.0109890109889	100.1895221070646	29.776730413926998	
1.5815298822888184E12	1.0	5.133310359791197	194.80606663351566	1190.4761904761904	100.1895221070646	29.776730413926998	
1.5815298823083496E12	1.0	5.143520822963333	194.41935483870967	1191.2087912087911	100.1840978513984	29.776730413926998	
1.5815298823278809E12	1.0	5.1486260545494	194.22657411998017	1194.8717948717947	100.1840978513984	29.776730413926998	
1.581529882347412E12	1.0	5.153731286135468	194.03417533432392	1200.7326007326008	100.18680997796525	29.776730413926998	
1.5815298823669434E12	1.0	5.158836517721535	193.8421573478476	1200.7326007326008	100.1895221070646	29.776730413926998	
1.5815298823864746E12	1.0	5.163941749307603	193.65051903114187	1204.3956043956043	100.1840978513984	29.776730413926998	
1.5815298824060059E12	1.0	5.179257444065807	193.0778708723509	1206.5934065934066	100.1895221070646	29.776730413926998	
1.581529882425537E12	1.0	5.169046980893671	193.45925925925926	1211.7216117216117	100.1895221070646	29.776730413926998	
1.5815298824450684E12	1.0	5.174152212479739	193.26837691169214	1213.1868131868132	100.1840978513984	29.776730413926998	
1.5815298824645996E12	1.0	5.179257444065807	193.0778708723509	1212.4542124542124	100.18680997796525	29.776730413926998	
1.5815298824841309E12	1.0	5.184362675651874	192.8877400295421	1214.6520146520145	100.18680997796525	29.776730413926998	
1.581529882503662E12	1.0	5.189467907237941	192.69798327594688	1216.8498168498168	100.1895221070646	29.776730413926998	
1.5815298825231934E12	1.0	5.199678370410077	192.31958762886597	1220.5128205128203	100.1840978513984	29.776730413926998	
1.5815298825427246E12	1.0	5.220099296754349	191.56723716381418	1224.1758241758241	100.18680997796525	29.776730413926998	
1.5815298825622559E12	1.0	5.2405202230986205	190.82075012177302	1230.03663003663	100.1840978513984	29.776730413926998	
1.581529882581787E12	1.0	5.250730686270756	190.44968400583375	1238.8278388278388	100.1840978513984	29.776730413926998	
1.5815298826013184E12	1.0	5.301783002131434	188.61579200770342	1246.153846153846	100.1895221070646	29.776730413926998	
1.5815298826208496E12	1.0	5.337519623233908	187.3529411764706	1262.2710622710622	100.1840978513984	29.776730413926998	
1.5815298826403809E12	1.0	5.3579405495781804	186.63887565507386	1276.923076923077	100.18680997796525	29.776730413926998	
1.581529882659912E12	1.0	5.414098097024925	184.70297029702974	1289.3772893772893	100.18680997796525	29.776730413926998	
1.5815298826794434E12	1.0	5.444729486541332	183.6638537271449	1315.018315018315	100.18138572736406	29.776730413926998	
1.5815298826989746E12	1.0	5.465150412885605	182.97758056982715	1336.263736263736	100.18680997796525	29.776730413926998	
1.5815298827185059E12	1.0	5.470255644471672	182.80681287914138	1352.3809523809523	100.18680997796525	29.776730413926998	
1.581529882738037E12	1.0	5.47536087605774	182.63636363636363	1361.904761904762	100.1895221070646	29.776730413926998	
1.5815298827575684E12	1.0	5.47536087605774	182.63636363636363	1369.9633699633698	100.19223423869646	29.776730413926998	
1.5815298827770996E12	1.0	5.480466107643808	182.4662319515603	1373.6263736263736	100.18138572736406	29.776730413926998	
1.5815298827966309E12	1.0	5.485571339229876	182.29641693811072	1374.3589743589744	100.1840978513984	29.776730413926998	
1.581529882816162E12	1.0	5.4957818024020115	181.9577333952624	1377.2893772893772	100.1840978513984	29.776730413926998	
1.5815298828356934E12	1.0	5.50088703398808	181.7888631090487	1383.8827838827838	100.1840978513984	29.776730413926998	
1.5815298828552246E12	1.0	5.511097497160216	181.45206113941637	1384.6153846153845	100.1840978513984	29.776730413926998	
1.5815298828747559E12	1.0	5.511097497160216	181.45206113941637	1389.0109890109889	100.18138572736406	29.776730413926998	
1.581529882894287E12	1.0	5.516202728746284	181.28412771864876	1391.2087912087911	100.1840978513984	29.776730413926998	
1.5815298829138184E12	1.0	5.516202728746284	181.28412771864876	1395.6043956043954	100.18138572736406	29.776730413926998	
1.5815298829333496E12	1.0	5.516202728746284	181.28412771864876	1397.8021978021977	100.1786736058622	29.776730413926998	
1.5815298829528809E12	1.0	5.516202728746284	181.28412771864876	1399.2673992673992	100.18138572736406	29.776730413926998	
1.581529882972412E12	1.0	5.511097497160216	181.45206113941637	1400.0	100.17596148689286	29.776730413926998	
1.5815298829919434E12	1.0	5.516202728746284	181.28412771864876	1397.069597069597	100.18138572736406	29.776730413926998	
1.5815298830114746E12	1.0	5.516202728746284	181.28412771864876	1398.5347985347985	100.18138572736406	29.776730413926998	
1.5815298830310059E12	1.0	5.516202728746284	181.28412771864876	1399.2673992673992	100.1840978513984	29.776730413926998	
1.581529883050537E12	1.0	5.516202728746284	181.28412771864876	1400.0	100.18680997796525	29.776730413926998	
1.5815298830700684E12	1.0	5.516202728746284	181.28412771864876	1400.7326007326005	100.1840978513984	29.776730413926998	
1.5815298830895996E12	1.0	5.516202728746284	181.28412771864876	1400.7326007326005	100.1840978513984	29.776730413926998	
1.5815298831091309E12	1.0	5.516202728746284	181.28412771864876	1400.7326007326005	100.18680997796525	29.776730413926998	
1.581529883128662E12	1.0	5.516202728746284	181.28412771864876	1400.7326007326005	100.18843549765947	29.786583862971746	
1.5815298831481934E12	1.0	5.521307960332352	181.1165048543689	1400.7326007326005	100.18572332777275	29.786583862971746	
1.5815298831677246E12	1.0	5.516202728746284	181.28412771864876	1399.2673992673992	100.18572332777275	29.786583862971746	
1.5815298831872559E12	1.0	5.516202728746284	181.28412771864876	1400.0	100.18572332777275	29.786583862971746	
1.581529883206787E12	1.0	5.516202728746284	181.28412771864876	1400.0	100.1830111604186	29.786583862971746	
1.5815298832263184E12	1.0	5.516202728746284	181.28412771864876	1400.7326007326005	100.1830111604186	29.786583862971746	
1.5815298832458496E12	1.0	5.516202728746284	181.28412771864876	1400.7326007326005	100.18029899559704	29.786583862971746	
1.5815298832653809E12	1.0	5.511097497160216	181.45206113941637	1400.7326007326005	100.18572332777275	29.786583862971746	
1.581529883284912E12	1.0	5.516202728746284	181.28412771864876	1397.069597069597	100.18572332777275	29.786583862971746	
1.5815298833044434E12	1.0	5.511097497160216	181.45206113941637	1399.2673992673992	100.1830111604186	29.786583862971746	
1.5815298833239746E12	1.0	5.516202728746284	181.28412771864876	1397.069597069597	100.1830111604186	29.786583862971746	
1.5815298833435059E12	1.0	5.516202728746284	181.28412771864876	1399.2673992673992	100.18572332777275	29.786583862971746	
1.581529883363037E12	1.0	5.516202728746284	181.28412771864876	1400.0	100.1830111604186	29.786583862971746	
1.5815298833825684E12	1.0	5.516202728746284	181.28412771864876	1400.7326007326005	100.18572332777275	29.786583862971746	
1.5815298834020996E12	1.0	5.516202728746284	181.28412771864876	1400.7326007326005	100.18843549765947	29.786583862971746	
1.5815298834216309E12	1.0	5.516202728746284	181.28412771864876	1400.7326007326005	100.18572332777275	29.786583862971746	
1.581529883441162E12	1.0	5.531518423504487	180.7821873557914	1400.7326007326005	100.1830111604186	29.786583862971746	
1.5815298834606934E12	1.0	5.541728886676622	180.44910179640718	1403.6630036630036	100.18843549765947	29.786583862971746	
1.5815298834802246E12	1.0	5.541728886676622	180.44910179640718	1408.058608058608	100.18843549765947	29.786583862971746	
1.5815298834997559E12	1.0	5.551939349848757	180.11724137931034	1410.2564102564102	100.18029899559704	29.786583862971746	
1.581529883519287E12	1.0	5.557044581434826	179.95176848874596	1415.3846153846152	100.18572332777275	29.786583862971746	
1.5815298835388184E12	1.0	5.557044581434826	179.95176848874596	1421.245421245421	100.18029899559704	29.786583862971746	
1.5815298835583496E12	1.0	5.557044581434826	179.95176848874596	1424.1758241758241	100.18572332777275	29.786583862971746	
1.5815298835778809E12	1.0	5.551939349848757	180.11724137931034	1425.6410256410256	100.18843549765947	29.786583862971746	
1.581529883597412E12	1.0	5.557044581434826	179.95176848874596	1423.4432234432234	100.18572332777275	29.786583862971746	
1.5815298836169434E12	1.0	5.551939349848757	180.11724137931034	1425.6410256410256	100.1830111604186	29.786583862971746	
1.5815298836364746E12	1.0	5.557044581434826	179.95176848874596	1422.7106227106226	100.18572332777275	29.786583862971746	
1.5815298836560059E12	1.0	5.557044581434826	179.95176848874596	1424.9084249084249	100.18029899559704	29.786583862971746	
1.581529883675537E12	1.0	5.557044581434826	179.95176848874596	1426.3736263736262	100.1830111604186	29.786583862971746	
1.5815298836950684E12	1.0	5.551939349848757	180.11724137931034	1427.106227106227	100.1830111604186	29.786583862971746	
1.5815298837145996E12	1.0	5.551939349848757	180.11724137931034	1424.1758241758241	100.18029899559704	29.786583862971746	
1.5815298837341309E12	1.0	5.557044581434826	179.95176848874596	1422.7106227106226	100.1830111604186	29.786583862971746	
1.581529883753662E12	1.0	5.557044581434826	179.95176848874596	1424.9084249084249	100.1830111604186	29.786583862971746	
1.5815298837731934E12	1.0	5.557044581434826	179.95176848874596	1426.3736263736262	100.19114767007875	29.786583862971746	
1.5815298837927246E12	1.0	5.557044581434826	179.95176848874596	1427.106227106227	100.1830111604186	29.786583862971746	
1.5815298838122559E12	1.0	5.567255044606961	179.6217331499312	1427.106227106227	100.18029899559704	29.786583862971746	
1.581529883831787E12	1.0	5.57236027619303	179.4571690334402	1429.3040293040292	100.18572332777275	29.786583862971746	
1.5815298838513184E12	1.0	5.608096897295503	178.31360946745562	1431.5018315018315	100.18843549765947	29.786583862971746	
1.5815298838708496E12	1.0	5.6183073604676395	177.9895502044525	1444.6886446886447	100.18572332777275	29.786583862971746	
1.5815298838903809E12	1.0	5.613202128881572	178.1514324693042	1454.9450549450548	100.18572332777275	29.786583862971746	
1.581529883909912E12	1.0	5.613202128881572	178.1514324693042	1457.142857142857	100.18029899559704	29.786583862971746	
1.5815298839294434E12	1.0	5.613202128881572	178.1514324693042	1457.8754578754579	100.1830111604186	29.786583862971746	
1.5815298839489746E12	1.0	5.613202128881572	178.1514324693042	1458.6080586080584	100.18572332777275	29.786583862971746	
1.5815298839685059E12	1.0	5.613202128881572	178.1514324693042	1459.3406593406592	100.18572332777275	29.786583862971746	
1.581529883988037E12	1.0	5.613202128881572	178.1514324693042	1459.3406593406592	100.1830111604186	29.786583862971746	
1.5815298840075684E12	1.0	5.613202128881572	178.1514324693042	1459.3406593406592	100.18029899559704	29.786583862971746	
1.5815298840270996E12	1.0	5.613202128881572	178.1514324693042	1458.6080586080584	100.1830111604186	29.786583862971746	
1.5815298840466309E12	1.0	5.613202128881572	178.1514324693042	1459.3406593406592	100.18572332777275	29.786583862971746	
1.581529884066162E12	1.0	5.608096897295503	178.31360946745562	1458.6080586080584	100.1830111604186	29.786583862971746	
1.5815298840856934E12	1.0	5.602991665709436	178.4760820045558	1458.6080586080584	100.18572332777275	29.786583862971746	
1.5815298841052246E12	1.0	5.602991665709436	178.4760820045558	1454.212454212454	100.19114767007875	29.786583862971746	
1.5815298841247559E12	1.0	5.613202128881572	178.1514324693042	1452.7472527472526	100.19358603439183	29.80136403872166	
1.581529884144287E12	1.0	5.602991665709436	178.4760820045558	1455.6776556776556	100.18273709998978	29.80136403872166	
1.5815298841638184E12	1.0	5.597886434123368	178.63885088919287	1453.4798534798533	100.18816156212542	29.80136403872166	
1.5815298841833496E12	1.0	5.5927812025373	178.80191693290735	1453.4798534798533	100.18544932979124	29.80136403872166	
1.5815298842028809E12	1.0	5.597886434123368	178.63885088919287	1450.5494505494505	100.18816156212542	29.80136403872166	
1.581529884222412E12	1.0	5.597886434123368	178.63885088919287	1451.2820512820513	100.19087379699228	29.80136403872166	
1.5815298842419434E12	1.0	5.597886434123368	178.63885088919287	1452.7472527472526	100.18816156212542	29.80136403872166	
1.5815298842614746E12	1.0	5.5927812025373	178.80191693290735	1452.7472527472526	100.18544932979124	29.80136403872166	
1.5815298842810059E12	1.0	5.5927812025373	178.80191693290735	1449.8168498168498	100.18002487272099	29.80136403872166	
1.581529884300537E12	1.0	5.597886434123368	178.63885088919287	1447.6190476190475	100.18273709998978	29.80136403872166	
1.5815298843200684E12	1.0	5.597886434123368	178.63885088919287	1450.5494505494505	100.18544932979124	29.80136403872166	
1.5815298843395996E12	1.0	5.597886434123368	178.63885088919287	1452.014652014652	100.18544932979124	29.80136403872166	
1.5815298843591309E12	1.0	5.5927812025373	178.80191693290735	1452.7472527472526	100.18544932979124	29.80136403872166	
1.581529884378662E12	1.0	5.597886434123368	178.63885088919287	1449.8168498168498	100.18816156212542	29.80136403872166	
1.5815298843981934E12	1.0	5.597886434123368	178.63885088919287	1451.2820512820513	100.18273709998978	29.80136403872166	
1.5815298844177246E12	1.0	5.597886434123368	178.63885088919287	1452.7472527472526	100.18544932979124	29.80136403872166	
1.5815298844372559E12	1.0	5.597886434123368	178.63885088919287	1452.7472527472526	100.18816156212542	29.80136403872166	
1.581529884456787E12	1.0	5.597886434123368	178.63885088919287	1453.4798534798533	100.18273709998978	29.80136403872166	
1.5815298844763184E12	1.0	5.608096897295503	178.31360946745562	1452.7472527472526	100.18544932979124	29.80136403872166	
1.5815298844958496E12	1.0	5.597886434123368	178.63885088919287	1455.6776556776556	100.18544932979124	29.80136403872166	
1.5815298845153809E12	1.0	5.5927812025373	178.80191693290735	1454.212454212454	100.18816156212542	29.80136403872166	
1.581529884534912E12	1.0	5.597886434123368	178.63885088919287	1450.5494505494505	100.18544932979124	29.80136403872166	
1.5815298845544434E12	1.0	5.597886434123368	178.63885088919287	1452.014652014652	100.18816156212542	29.80136403872166	
1.5815298845739746E12	1.0	5.597886434123368	178.63885088919287	1452.7472527472526	100.18273709998978	29.80136403872166	
1.5815298845935059E12	1.0	5.597886434123368	178.63885088919287	1453.4798534798533	100.18816156212542	29.80136403872166	
1.581529884613037E12	1.0	5.597886434123368	178.63885088919287	1453.4798534798533	100.18002487272099	29.80136403872166	
1.5815298846325684E12	1.0	5.602991665709436	178.4760820045558	1453.4798534798533	100.18544932979124	29.80136403872166	
1.5815298846520996E12	1.0	5.602991665709436	178.4760820045558	1452.014652014652	100.18273709998978	29.80136403872166	
1.5815298846716309E12	1.0	5.602991665709436	178.4760820045558	1451.2820512820513	100.18002487272099	29.80136403872166	
1.581529884691162E12	1.0	5.602991665709436	178.4760820045558	1451.2820512820513	100.18002487272099	29.80136403872166	
1.5815298847106934E12	1.0	5.602991665709436	178.4760820045558	1451.2820512820513	100.18544932979124	29.80136403872166	
1.5815298847302246E12	1.0	5.602991665709436	178.4760820045558	1450.5494505494505	100.18273709998978	29.80136403872166	
1.5815298847497559E12	1.0	5.608096897295503	178.31360946745562	1451.2820512820513	100.17731264798492	29.80136403872166	
1.581529884769287E12	1.0	5.608096897295503	178.31360946745562	1454.212454212454	100.18273709998978	29.80136403872166	
1.5815298847888184E12	1.0	5.608096897295503	178.31360946745562	1455.6776556776556	100.18544932979124	29.80136403872166	
1.5815298848083496E12	1.0	5.608096897295503	178.31360946745562	1456.4102564102564	100.18273709998978	29.80136403872166	
1.5815298848278809E12	1.0	5.608096897295503	178.31360946745562	1457.142857142857	100.18816156212542	29.80136403872166	
1.581529884847412E12	1.0	5.608096897295503	178.31360946745562	1457.8754578754579	100.18273709998978	29.80136403872166	
1.5815298848669434E12	1.0	5.608096897295503	178.31360946745562	1457.142857142857	100.19087379699228	29.80136403872166	
1.5815298848864746E12	1.0	5.608096897295503	178.31360946745562	1457.8754578754579	100.17731264798492	29.80136403872166	
1.5815298849060059E12	1.0	5.608096897295503	178.31360946745562	1457.142857142857	100.18816156212542	29.80136403872166	
1.581529884925537E12	1.0	5.613202128881572	178.1514324693042	1457.8754578754579	100.18544932979124	29.80136403872166	
1.5815298849450684E12	1.0	5.613202128881572	178.1514324693042	1457.8754578754579	100.18273709998978	29.80136403872166	
1.5815298849645996E12	1.0	5.613202128881572	178.1514324693042	1458.6080586080584	100.18273709998978	29.80136403872166	
1.5815298849841309E12	1.0	5.613202128881572	178.1514324693042	1459.3406593406592	100.18273709998978	29.80136403872166	
1.581529885003662E12	1.0	5.613202128881572	178.1514324693042	1459.3406593406592	100.18002487272099	29.80136403872166	
1.5815298850231934E12	1.0	5.613202128881572	178.1514324693042	1459.3406593406592	100.18273709998978	29.80136403872166	
1.5815298850427246E12	1.0	5.613202128881572	178.1514324693042	1459.3406593406592	100.18273709998978	29.80136403872166	
1.5815298850622559E12	1.0	5.613202128881572	178.1514324693042	1459.3406593406592	100.17731264798492	29.80136403872166	
1.581529885081787E12	1.0	5.613202128881572	178.1514324693042	1459.3406593406592	100.18544932979124	29.80136403872166	
1.5815298851013184E12	1.0	5.613202128881572	178.1514324693042	1459.3406593406592	100.18544932979124	29.80136403872166	
1.5815298851208496E12	1.0	5.6183073604676395	177.9895502044525	1459.3406593406592	100.18870025922251	29.821070943796077	
1.5815298851403809E12	1.0	5.6183073604676395	177.9895502044525	1463.003663003663	100.19141257819734	29.821070943796077	
1.581529885159912E12	1.0	5.6183073604676395	177.9895502044525	1464.4688644688645	100.18598794278051	29.821070943796077	
1.5815298851794434E12	1.0	5.6183073604676395	177.9895502044525	1465.201465201465	100.19141257819734	29.821070943796077	
1.5815298851989746E12	1.0	5.6183073604676395	177.9895502044525	1465.9340659340658	100.18870025922251	29.821070943796077	
1.5815298852185059E12	1.0	5.6183073604676395	177.9895502044525	1465.9340659340658	100.18327562887139	29.821070943796077	
1.581529885238037E12	1.0	5.623412592053707	177.82796187017703	1465.9340659340658	100.18598794278051	29.821070943796077	
1.5815298852575684E12	1.0	5.623412592053707	177.82796187017703	1465.201465201465	100.18598794278051	29.821070943796077	
1.5815298852770996E12	1.0	5.623412592053707	177.82796187017703	1464.4688644688645	100.17785100865166	29.821070943796077	
1.5815298852966309E12	1.0	5.623412592053707	177.82796187017703	1464.4688644688645	100.18870025922251	29.821070943796077	
1.581529885316162E12	1.0	5.623412592053707	177.82796187017703	1464.4688644688645	100.19141257819734	29.821070943796077	
1.5815298853356934E12	1.0	5.654043981570114	176.8645598194131	1464.4688644688645	100.18327562887139	29.821070943796077	
1.5815298853552246E12	1.0	5.628517823639775	177.66666666666666	1474.7252747252746	100.18327562887139	29.821070943796077	
1.5815298853747559E12	1.0	5.633623055225843	177.5056637970095	1472.5274725274724	100.18870025922251	29.821070943796077	
1.581529885394287E12	1.0	5.628517823639775	177.66666666666666	1472.5274725274724	100.18327562887139	29.821070943796077	
1.5815298854138184E12	1.0	5.633623055225843	177.5056637970095	1471.7948717948716	100.18056331749509	29.821070943796077	
1.5815298854333496E12	1.0	5.633623055225843	177.5056637970095	1472.5274725274724	100.18870025922251	29.821070943796077	
1.5815298854528809E12	1.0	5.633623055225843	177.5056637970095	1472.5274725274724	100.18598794278051	29.821070943796077	
1.581529885472412E12	1.0	5.633623055225843	177.5056637970095	1472.5274725274724	100.19412489970505	29.821070943796077	
1.5815298854919434E12	1.0	5.63872828681191	177.34495246717972	1472.5274725274724	100.18056331749509	29.821070943796077	
1.5815298855114746E12	1.0	5.63872828681191	177.34495246717972	1476.1904761904761	100.18870025922251	29.821070943796077	
1.5815298855310059E12	1.0	5.63872828681191	177.34495246717972	1477.6556776556777	100.18327562887139	29.821070943796077	
1.581529885550537E12	1.0	5.63872828681191	177.34495246717972	1478.3882783882782	100.18327562887139	29.821070943796077	
1.5815298855700684E12	1.0	5.643833518397978	177.18453188602442	1479.120879120879	100.18598794278051	29.821070943796077	
1.5815298855895996E12	1.0	5.648938749984047	177.0244012652508	1477.6556776556777	100.18870025922251	29.821070943796077	
1.5815298856091309E12	1.0	5.643833518397978	177.18453188602442	1481.3186813186812	100.18056331749509	29.821070943796077	
1.581529885628662E12	1.0	5.648938749984047	177.0244012652508	1478.3882783882782	100.18056331749509	29.821070943796077	
1.5815298856481934E12	1.0	5.643833518397978	177.18453188602442	1481.3186813186812	100.18870025922251	29.821070943796077	
1.5815298856677246E12	1.0	5.648938749984047	177.0244012652508	1479.120879120879	100.18598794278051	29.821070943796077	
1.5815298856872559E12	1.0	5.648938749984047	177.0244012652508	1481.3186813186812	100.18327562887139	29.821070943796077	
1.581529885706787E12	1.0	5.648938749984047	177.0244012652508	1482.7838827838827	100.18870025922251	29.821070943796077	
1.5815298857263184E12	1.0	5.654043981570114	176.8645598194131	1482.7838827838827	100.18598794278051	29.821070943796077	
1.5815298857458496E12	1.0	5.654043981570114	176.8645598194131	1484.2490842490843	100.18598794278051	29.821070943796077	
1.5815298857653809E12	1.0	5.659149213156182	176.70500676589987	1484.9816849816848	100.18056331749509	29.821070943796077	
1.581529885784912E12	1.0	5.654043981570114	176.8645598194131	1488.6446886446886	100.18327562887139	29.821070943796077	
1.5815298858044434E12	1.0	5.659149213156182	176.70500676589987	1486.4468864468863	100.18056331749509	29.821070943796077	
1.5815298858239746E12	1.0	5.654043981570114	176.8645598194131	1489.3772893772893	100.18598794278051	29.821070943796077	
1.5815298858435059E12	1.0	5.659149213156182	176.70500676589987	1487.179487179487	100.18327562887139	29.821070943796077	
1.581529885863037E12	1.0	5.659149213156182	176.70500676589987	1490.10989010989	100.18327562887139	29.821070943796077	
1.5815298858825684E12	1.0	5.66425444474225	176.54574132492112	1490.8424908424906	100.18327562887139	29.821070943796077	
1.5815298859020996E12	1.0	5.66425444474225	176.54574132492112	1339.9267399267399	100.18598794278051	29.821070943796077	
1.5815298859216309E12	1.0	5.66425444474225	176.54574132492112	1266.6666666666665	100.17785100865166	29.821070943796077	
1.581529885941162E12	1.0	5.66425444474225	176.54574132492112	1230.03663003663	100.18598794278051	29.821070943796077	
1.5815298859606934E12	1.0	5.669359676328318	176.38676271949572	1211.7216117216117	100.18327562887139	29.821070943796077	
1.5815298859802246E12	1.0	5.669359676328318	176.38676271949572	1205.128205128205	100.18870025922251	29.821070943796077	
1.5815298859997559E12	1.0	5.669359676328318	176.38676271949572	1201.4652014652013	100.18870025922251	29.821070943796077	
1.581529886019287E12	1.0	5.669359676328318	176.38676271949572	1200.0	100.18056331749509	29.821070943796077	
1.5815298860388184E12	1.0	5.674464907914385	176.2280701754386	1198.5347985347985	100.18327562887139	29.821070943796077	
1.5815298860583496E12	1.0	5.674464907914385	176.2280701754386	1198.5347985347985	100.18327562887139	29.821070943796077	
1.5815298860778809E12	1.0	5.674464907914385	176.2280701754386	1198.5347985347985	100.18598794278051	29.821070943796077	
1.581529886097412E12	1.0	5.674464907914385	176.2280701754386	1197.8021978021977	100.18598794278051	29.821070943796077	
1.5815298861169434E12	1.0	5.674464907914385	176.2280701754386	1198.5347985347985	100.18680066007218	29.825997670792276	
1.5815298861364746E12	1.0	5.674464907914385	176.2280701754386	1197.8021978021977	100.18680066007218	29.825997670792276	
1.5815298861560059E12	1.0	5.674464907914385	176.2280701754386	1197.8021978021977	100.19222533880952	29.825997670792276	
1.581529886175537E12	1.0	5.674464907914385	176.2280701754386	1197.8021978021977	100.18680066007218	29.825997670792276	
1.5815298861950684E12	1.0	5.674464907914385	176.2280701754386	1197.8021978021977	100.18680066007218	29.825997670792276	
1.5815298862145996E12	1.0	5.674464907914385	176.2280701754386	1197.8021978021977	100.18680066007218	29.825997670792276	
1.5815298862341309E12	1.0	5.674464907914385	176.2280701754386	1197.8021978021977	100.1895129981744	29.825997670792276	
1.581529886253662E12	1.0	5.674464907914385	176.2280701754386	1197.8021978021977	100.17866366096283	29.825997670792276	
1.5815298862731934E12	1.0	5.674464907914385	176.2280701754386	1197.8021978021977	100.18408832450284	29.825997670792276	
1.5815298862927246E12	1.0	5.679570139500453	176.0696629213483	1197.8021978021977	100.1895129981744	29.825997670792276	
1.5815298863122559E12	1.0	5.679570139500453	176.0696629213483	1200.7326007326008	100.18408832450284	29.825997670792276	
1.581529886331787E12	1.0	5.679570139500453	176.0696629213483	1202.197802197802	100.18680066007218	29.825997670792276	
1.5815298863513184E12	1.0	5.679570139500453	176.0696629213483	1202.9304029304028	100.18408832450284	29.825997670792276	
1.5815298863708496E12	1.0	5.679570139500453	176.0696629213483	1202.9304029304028	100.18680066007218	29.825997670792276	
1.5815298863903809E12	1.0	5.679570139500453	176.0696629213483	1202.9304029304028	100.18680066007218	29.825997670792276	
1.581529886409912E12	1.0	5.674464907914385	176.2280701754386	1202.9304029304028	100.18680066007218	29.825997670792276	
1.5815298864294434E12	1.0	5.679570139500453	176.0696629213483	1200.7326007326008	100.1895129981744	29.825997670792276	
1.5815298864489746E12	1.0	5.674464907914385	176.2280701754386	1202.197802197802	100.18680066007218	29.825997670792276	
1.5815298864685059E12	1.0	5.674464907914385	176.2280701754386	1199.2673992673992	100.18408832450284	29.825997670792276	
1.581529886488037E12	1.0	5.674464907914385	176.2280701754386	1198.5347985347985	100.18680066007218	29.825997670792276	
1.5815298865075684E12	1.0	5.674464907914385	176.2280701754386	1197.8021978021977	100.18680066007218	29.825997670792276	
1.5815298865270996E12	1.0	5.674464907914385	176.2280701754386	1197.8021978021977	100.18408832450284	29.825997670792276	
1.5815298865466309E12	1.0	5.674464907914385	176.2280701754386	1197.069597069597	100.1895129981744	29.825997670792276	
1.581529886566162E12	1.0	5.674464907914385	176.2280701754386	1197.8021978021977	100.18137599146638	29.825997670792276	
1.5815298865856934E12	1.0	5.674464907914385	176.2280701754386	1197.069597069597	100.18408832450284	29.825997670792276	
1.5815298866052246E12	1.0	5.674464907914385	176.2280701754386	1197.069597069597	100.17866366096283	29.825997670792276	
1.5815298866247559E12	1.0	5.674464907914385	176.2280701754386	1197.069597069597	100.18137599146638	29.825997670792276	
1.581529886644287E12	1.0	5.674464907914385	176.2280701754386	1197.069597069597	100.18680066007218	29.825997670792276	
1.5815298866638184E12	1.0	5.674464907914385	176.2280701754386	1197.069597069597	100.17595133299216	29.825997670792276	
1.5815298866833496E12	1.0	5.669359676328318	176.38676271949572	1197.069597069597	100.1895129981744	29.825997670792276	
1.5815298867028809E12	1.0	5.669359676328318	176.38676271949572	1197.069597069597	100.18680066007218	29.825997670792276	
1.581529886722412E12	1.0	5.674464907914385	176.2280701754386	1196.3369963369962	100.1895129981744	29.825997670792276	
1.5815298867419434E12	1.0	5.669359676328318	176.38676271949572	1196.3369963369962	100.18137599146638	29.825997670792276	
1.5815298867614746E12	1.0	5.669359676328318	176.38676271949572	1196.3369963369962	100.18137599146638	29.825997670792276	
1.5815298867810059E12	1.0	5.669359676328318	176.38676271949572	1196.3369963369962	100.18137599146638	29.825997670792276	
1.581529886800537E12	1.0	5.669359676328318	176.38676271949572	1195.6043956043954	100.18408832450284	29.825997670792276	
1.5815298868200684E12	1.0	5.66425444474225	176.54574132492112	1196.3369963369962	100.18680066007218	29.825997670792276	
1.5815298868395996E12	1.0	5.659149213156182	176.70500676589987	1193.4065934065934	100.18137599146638	29.825997670792276	
1.5815298868591309E12	1.0	5.669359676328318	176.38676271949572	1344.3223443223442	100.18680066007218	29.825997670792276	
1.581529886878662E12	1.0	5.669359676328318	176.38676271949572	1268.131868131868	100.17866366096283	29.825997670792276	
1.5815298868981934E12	1.0	5.66425444474225	176.54574132492112	1232.967032967033	100.1895129981744	29.825997670792276	
1.5815298869177246E12	1.0	5.669359676328318	176.38676271949572	1211.7216117216117	100.18408832450284	29.825997670792276	
1.5815298869372559E12	1.0	5.66425444474225	176.54574132492112	1204.3956043956043	100.18680066007218	29.825997670792276	
1.581529886956787E12	1.0	5.669359676328318	176.38676271949572	1197.8021978021977	100.18408832450284	29.825997670792276	
1.5815298869763184E12	1.0	5.66425444474225	176.54574132492112	1197.069597069597	100.18408832450284	29.825997670792276	
1.5815298869958496E12	1.0	5.669359676328318	176.38676271949572	1194.1391941391942	100.18137599146638	29.825997670792276	
1.5815298870153809E12	1.0	5.66425444474225	176.54574132492112	1195.6043956043954	100.18408832450284	29.825997670792276	
1.581529887034912E12	1.0	5.66425444474225	176.54574132492112	1192.6739926739926	100.18408832450284	29.825997670792276	
1.5815298870544434E12	1.0	5.66425444474225	176.54574132492112	1191.9413919413919	100.18137599146638	29.825997670792276	
1.5815298870739746E12	1.0	5.66425444474225	176.54574132492112	1191.2087912087911	100.18408832450284	29.825997670792276	
1.5815298870935059E12	1.0	5.66425444474225	176.54574132492112	1190.4761904761904	100.18680066007218	29.825997670792276	
1.581529887113037E12	1.0	5.66425444474225	176.54574132492112	1190.4761904761904	100.18842610256674	29.83585112565779	
1.5815298871325684E12	1.0	5.66425444474225	176.54574132492112	1190.4761904761904	100.180288973496	29.83585112565779	
1.5815298871520996E12	1.0	5.66425444474225	176.54574132492112	1190.4761904761904	100.18300134731993	29.83585112565779	
1.5815298871716309E12	1.0	5.66425444474225	176.54574132492112	1190.4761904761904	100.18300134731993	29.83585112565779	
1.581529887191162E12	1.0	5.66425444474225	176.54574132492112	1190.4761904761904	100.18571372367684	29.83585112565779	
1.5815298872106934E12	1.0	5.66425444474225	176.54574132492112	1190.4761904761904	100.18571372367684	29.83585112565779	
1.5815298872302246E12	1.0	5.66425444474225	176.54574132492112	1190.4761904761904	100.18571372367684	29.83585112565779	
1.5815298872497559E12	1.0	5.66425444474225	176.54574132492112	1190.4761904761904	100.18842610256674	29.83585112565779	
1.581529887269287E12	1.0	5.66425444474225	176.54574132492112	1190.4761904761904	100.18300134731993	29.83585112565779	
1.5815298872888184E12	1.0	5.669359676328318	176.38676271949572	1190.4761904761904	100.180288973496	29.83585112565779	
1.5815298873083496E12	1.0	5.66425444474225	176.54574132492112	1193.4065934065934	100.18842610256674	29.83585112565779	
1.5815298873278809E12	1.0	5.66425444474225	176.54574132492112	1191.9413919413919	100.17757660220501	29.83585112565779	
1.581529887347412E12	1.0	5.66425444474225	176.54574132492112	1191.2087912087911	100.18571372367684	29.83585112565779	
1.5815298873669434E12	1.0	5.66425444474225	176.54574132492112	1190.4761904761904	100.18571372367684	29.83585112565779	
1.5815298873864746E12	1.0	5.669359676328318	176.38676271949572	1190.4761904761904	100.19113848398958	29.83585112565779	
1.5815298874060059E12	1.0	5.669359676328318	176.38676271949572	1193.4065934065934	100.19113848398958	29.83585112565779	
1.581529887425537E12	1.0	5.669359676328318	176.38676271949572	1194.1391941391942	100.18571372367684	29.83585112565779	
1.5815298874450684E12	1.0	5.669359676328318	176.38676271949572	1195.6043956043954	100.18571372367684	29.83585112565779	
1.5815298874645996E12	1.0	5.669359676328318	176.38676271949572	1195.6043956043954	100.180288973496	29.83585112565779	
1.5815298874841309E12	1.0	5.674464907914385	176.2280701754386	1196.3369963369962	100.18300134731993	29.83585112565779	
1.581529887503662E12	1.0	5.674464907914385	176.2280701754386	1196.3369963369962	100.18842610256674	29.83585112565779	
1.5815298875231934E12	1.0	5.674464907914385	176.2280701754386	1196.3369963369962	100.18571372367684	29.83585112565779	
1.5815298875427246E12	1.0	5.674464907914385	176.2280701754386	1197.069597069597	100.17757660220501	29.83585112565779	
1.5815298875622559E12	1.0	5.679570139500453	176.0696629213483	1197.069597069597	100.18571372367684	29.83585112565779	
1.581529887581787E12	1.0	5.674464907914385	176.2280701754386	1200.0	100.18842610256674	29.83585112565779	
1.5815298876013184E12	1.0	5.674464907914385	176.2280701754386	1197.8021978021977	100.180288973496	29.83585112565779	
1.5815298876208496E12	1.0	5.679570139500453	176.0696629213483	1197.8021978021977	100.18842610256674	29.83585112565779	
1.5815298876403809E12	1.0	5.679570139500453	176.0696629213483	1200.7326007326008	100.18571372367684	29.83585112565779	
1.581529887659912E12	1.0	5.684675371086521	175.91154018859453	1201.4652014652013	100.18300134731993	29.83585112565779	
1.5815298876794434E12	1.0	5.679570139500453	176.0696629213483	1200.0	100.18842610256674	29.83585112565779	
1.5815298876989746E12	1.0	5.679570139500453	176.0696629213483	1201.4652014652013	100.18300134731993	29.83585112565779	
1.5815298877185059E12	1.0	5.684675371086521	175.91154018859453	1202.197802197802	100.17757660220501	29.83585112565779	
1.581529887738037E12	1.0	5.684675371086521	175.91154018859453	1200.0	100.18300134731993	29.83585112565779	
1.5815298877575684E12	1.0	5.689780602672588	175.75370121130553	1199.2673992673992	100.18300134731993	29.83585112565779	
1.5815298877770996E12	1.0	5.684675371086521	175.91154018859453	1202.197802197802	100.180288973496	29.83585112565779	
1.5815298877966309E12	1.0	5.689780602672588	175.75370121130553	1200.0	100.18300134731993	29.83585112565779	
1.581529887816162E12	1.0	5.689780602672588	175.75370121130553	1202.197802197802	100.18571372367684	29.83585112565779	
1.5815298878356934E12	1.0	5.694885834258656	175.5961452263559	1202.9304029304028	100.18300134731993	29.83585112565779	
1.5815298878552246E12	1.0	5.689780602672588	175.75370121130553	1203.6630036630036	100.18300134731993	29.83585112565779	
1.5815298878747559E12	1.0	5.694885834258656	175.5961452263559	1204.3956043956043	100.18842610256674	29.83585112565779	
1.581529887894287E12	1.0	5.694885834258656	175.5961452263559	1204.3956043956043	100.18300134731993	29.83585112565779	
1.5815298879138184E12	1.0	5.694885834258656	175.5961452263559	1204.3956043956043	100.17757660220501	29.83585112565779	
1.5815298879333496E12	1.0	5.694885834258656	175.5961452263559	1205.128205128205	100.18300134731993	29.83585112565779	
1.5815298879528809E12	1.0	5.699991065844724	175.43887147335423	1205.128205128205	100.180288973496	29.83585112565779	
1.581529887972412E12	1.0	5.699991065844724	175.43887147335423	1208.058608058608	100.180288973496	29.83585112565779	
1.5815298879919434E12	1.0	5.699991065844724	175.43887147335423	1209.5238095238094	100.18300134731993	29.83585112565779	
1.5815298880114746E12	1.0	5.699991065844724	175.43887147335423	1210.2564102564102	100.17757660220501	29.83585112565779	
1.5815298880310059E12	1.0	5.699991065844724	175.43887147335423	1210.989010989011	100.18300134731993	29.83585112565779	
1.581529888050537E12	1.0	5.705096297430792	175.28187919463087	1210.989010989011	100.180288973496	29.83585112565779	
1.5815298880700684E12	1.0	5.705096297430792	175.28187919463087	1208.7912087912086	100.18300134731993	29.83585112565779	
1.5815298880895996E12	1.0	5.705096297430792	175.28187919463087	1208.058608058608	100.18300134731993	29.83585112565779	
1.5815298881091309E12	1.0	5.705096297430792	175.28187919463087	1207.3260073260074	100.18462671372016	29.84570458168746	
1.581529888128662E12	1.0	5.710201529016859	175.12516763522575	1207.3260073260074	100.18462671372016	29.84570458168746	
1.5815298881481934E12	1.0	5.710201529016859	175.12516763522575	1210.2564102564102	100.18462671372016	29.84570458168746	
1.5815298881677246E12	1.0	5.710201529016859	175.12516763522575	1211.7216117216117	100.18462671372016	29.84570458168746	
1.5815298881872559E12	1.0	5.710201529016859	175.12516763522575	1212.4542124542124	100.18462671372016	29.84570458168746	
1.581529888206787E12	1.0	5.710201529016859	175.12516763522575	1212.4542124542124	100.18462671372016	29.84570458168746	
1.5815298882263184E12	1.0	5.710201529016859	175.12516763522575	1212.4542124542124	100.18191429657564	29.84570458168746	
1.5815298882458496E12	1.0	5.710201529016859	175.12516763522575	1213.1868131868132	100.18191429657564	29.84570458168746	
1.5815298882653809E12	1.0	5.715306760602927	174.9687360428763	1212.4542124542124	100.18462671372016	29.84570458168746	
1.581529888284912E12	1.0	5.715306760602927	174.9687360428763	1213.1868131868132	100.19005155560832	29.84570458168746	
1.5815298883044434E12	1.0	5.715306760602927	174.9687360428763	1213.9194139194137	100.18191429657564	29.84570458168746	
1.5815298883239746E12	1.0	5.715306760602927	174.9687360428763	1213.9194139194137	100.18191429657564	29.84570458168746	
1.5815298883435059E12	1.0	5.715306760602927	174.9687360428763	1213.1868131868132	100.18733913339771	29.84570458168746	
1.581529888363037E12	1.0	5.710201529016859	175.12516763522575	1213.9194139194137	100.18733913339771	29.84570458168746	
1.5815298883825684E12	1.0	5.715306760602927	174.9687360428763	1213.9194139194137	100.18462671372016	29.84570458168746	
1.5815298884020996E12	1.0	5.715306760602927	174.9687360428763	1213.9194139194137	100.18462671372016	29.84570458168746	
1.5815298884216309E12	1.0	5.715306760602927	174.9687360428763	1213.9194139194137	100.18462671372016	29.84570458168746	
1.581529888441162E12	1.0	5.715306760602927	174.9687360428763	1213.9194139194137	100.18191429657564	29.84570458168746	
1.5815298884606934E12	1.0	5.715306760602927	174.9687360428763	1213.9194139194137	100.18462671372016	29.84570458168746	
1.5815298884802246E12	1.0	5.715306760602927	174.9687360428763	1213.9194139194137	100.18462671372016	29.84570458168746	
1.5815298884997559E12	1.0	5.715306760602927	174.9687360428763	1213.9194139194137	100.18462671372016	29.84570458168746	
1.581529888519287E12	1.0	5.710201529016859	175.12516763522575	1213.9194139194137	100.18462671372016	29.84570458168746	
1.5815298885388184E12	1.0	5.715306760602927	174.9687360428763	1213.1868131868132	100.18462671372016	29.84570458168746	
1.5815298885583496E12	1.0	5.710201529016859	175.12516763522575	1213.1868131868132	100.17920188196416	29.84570458168746	
1.5815298885778809E12	1.0	5.710201529016859	175.12516763522575	1213.1868131868132	100.18733913339771	29.84570458168746	
1.581529888597412E12	1.0	5.710201529016859	175.12516763522575	1213.1868131868132	100.17920188196416	29.84570458168746	
1.5815298886169434E12	1.0	5.710201529016859	175.12516763522575	1213.1868131868132	100.18462671372016	29.84570458168746	
1.5815298886364746E12	1.0	5.705096297430792	175.28187919463087	1213.1868131868132	100.18462671372016	29.84570458168746	
1.5815298886560059E12	1.0	5.705096297430792	175.28187919463087	1209.5238095238094	100.17920188196416	29.84570458168746	
1.581529888675537E12	1.0	5.705096297430792	175.28187919463087	1208.058608058608	100.18191429657564	29.84570458168746	
1.5815298886950684E12	1.0	5.699991065844724	175.43887147335423	1207.3260073260074	100.19005155560832	29.84570458168746	
1.5815298887145996E12	1.0	5.694885834258656	175.5961452263559	1209.5238095238094	100.18191429657564	29.84570458168746	
1.5815298887341309E12	1.0	5.694885834258656	175.5961452263559	1207.3260073260074	100.18191429657564	29.84570458168746	
1.581529888753662E12	1.0	5.694885834258656	175.5961452263559	1206.5934065934066	100.18733913339771	29.84570458168746	
1.5815298887731934E12	1.0	5.694885834258656	175.5961452263559	1206.5934065934066	100.18462671372016	29.84570458168746	
1.5815298887927246E12	1.0	5.694885834258656	175.5961452263559	1205.128205128205	100.18191429657564	29.84570458168746	
1.5815298888122559E12	1.0	5.694885834258656	175.5961452263559	1205.128205128205	100.17920188196416	29.84570458168746	
1.581529888831787E12	1.0	5.694885834258656	175.5961452263559	1205.128205128205	100.18462671372016	29.84570458168746	
1.5815298888513184E12	1.0	5.689780602672588	175.75370121130553	1205.128205128205	100.18191429657564	29.84570458168746	
1.5815298888708496E12	1.0	5.684675371086521	175.91154018859453	1204.3956043956043	100.18191429657564	29.84570458168746	
1.5815298888903809E12	1.0	5.679570139500453	176.0696629213483	1201.4652014652013	100.17920188196416	29.84570458168746	
1.581529888909912E12	1.0	5.679570139500453	176.0696629213483	1202.197802197802	100.18462671372016	29.84570458168746	
1.5815298889294434E12	1.0	5.674464907914385	176.2280701754386	1202.197802197802	100.18462671372016	29.84570458168746	
1.5815298889489746E12	1.0	5.674464907914385	176.2280701754386	1200.0	100.18191429657564	29.84570458168746	
1.5815298889685059E12	1.0	5.669359676328318	176.38676271949572	1198.5347985347985	100.18462671372016	29.84570458168746	
1.581529888988037E12	1.0	5.669359676328318	176.38676271949572	1197.069597069597	100.18462671372016	29.84570458168746	
1.5815298890075684E12	1.0	5.669359676328318	176.38676271949572	1197.069597069597	100.17377706034038	29.84570458168746	
1.5815298890270996E12	1.0	5.669359676328318	176.38676271949572	1196.3369963369962	100.17920188196416	29.84570458168746	
1.5815298890466309E12	1.0	5.669359676328318	176.38676271949572	1196.3369963369962	100.17920188196416	29.84570458168746	
1.581529889066162E12	1.0	5.669359676328318	176.38676271949572	1196.3369963369962	100.18462671372016	29.84570458168746	
1.5815298890856934E12	1.0	5.66425444474225	176.54574132492112	1195.6043956043954	100.18462671372016	29.84570458168746	
1.5815298891052246E12	1.0	5.66425444474225	176.54574132492112	1193.4065934065934	100.18543940087473	29.85063131013885	
1.5815298891247559E12	1.0	5.66425444474225	176.54574132492112	1191.9413919413919	100.18543940087473	29.85063131013885	
1.581529889144287E12	1.0	5.659149213156182	176.70500676589987	1191.2087912087911	100.18272696206986	29.85063131013885	
1.5815298891638184E12	1.0	5.659149213156182	176.70500676589987	1342.8571428571427	100.18543940087473	29.85063131013885	
1.5815298891833496E12	1.0	5.654043981570114	176.8645598194131	1416.117216117216	100.18272696206986	29.85063131013885	
1.5815298892028809E12	1.0	5.654043981570114	176.8645598194131	1449.084249084249	100.19086428608371	29.85063131013885	
1.581529889222412E12	1.0	5.648938749984047	177.0244012652508	1465.9340659340658	100.18543940087473	29.85063131013885	
1.5815298892419434E12	1.0	5.643833518397978	177.18453188602442	1473.9926739926739	100.18543940087473	29.85063131013885	
1.5815298892614746E12	1.0	5.643833518397978	177.18453188602442	1473.9926739926739	100.18272696206986	29.85063131013885	
1.5815298892810059E12	1.0	5.63872828681191	177.34495246717972	1474.7252747252746	100.18815184221266	29.85063131013885	
1.581529889300537E12	1.0	5.63872828681191	177.34495246717972	1476.923076923077	100.18815184221266	29.85063131013885	
1.5815298893200684E12	1.0	5.63872828681191	177.34495246717972	1476.923076923077	100.18543940087473	29.85063131013885	
1.5815298893395996E12	1.0	5.63872828681191	177.34495246717972	1477.6556776556777	100.18543940087473	29.85063131013885	
1.5815298893591309E12	1.0	5.633623055225843	177.5056637970095	1477.6556776556777	100.18543940087473	29.85063131013885	
1.581529889378662E12	1.0	5.633623055225843	177.5056637970095	1474.7252747252746	100.18543940087473	29.85063131013885	
1.5815298893981934E12	1.0	5.623412592053707	177.82796187017703	1473.260073260073	100.18272696206986	29.85063131013885	
1.5815298894177246E12	1.0	5.628517823639775	177.66666666666666	1468.131868131868	100.19086428608371	29.85063131013885	
1.5815298894372559E12	1.0	5.628517823639775	177.66666666666666	1469.5970695970695	100.18272696206986	29.85063131013885	
1.581529889456787E12	1.0	5.623412592053707	177.82796187017703	1469.5970695970695	100.18543940087473	29.85063131013885	
1.5815298894763184E12	1.0	5.623412592053707	177.82796187017703	1466.6666666666665	100.18543940087473	29.85063131013885	
1.5815298894958496E12	1.0	5.623412592053707	177.82796187017703	1465.201465201465	100.18272696206986	29.85063131013885	
1.5815298895153809E12	1.0	5.623412592053707	177.82796187017703	1464.4688644688645	100.18272696206986	29.85063131013885	
1.581529889534912E12	1.0	5.6183073604676395	177.9895502044525	1464.4688644688645	100.18815184221266	29.85063131013885	
1.5815298895544434E12	1.0	5.6183073604676395	177.9895502044525	1465.201465201465	100.18272696206986	29.85063131013885	
1.5815298895739746E12	1.0	5.6183073604676395	177.9895502044525	1465.201465201465	100.18815184221266	29.85063131013885	
1.5815298895935059E12	1.0	5.613202128881572	178.1514324693042	1465.201465201465	100.19086428608371	29.85063131013885	
1.581529889613037E12	1.0	5.608096897295503	178.31360946745562	1462.2710622710622	100.18543940087473	29.85063131013885	
1.5815298896325684E12	1.0	5.608096897295503	178.31360946745562	1460.07326007326	100.18815184221266	29.85063131013885	
1.5815298896520996E12	1.0	5.608096897295503	178.31360946745562	1458.6080586080584	100.19086428608371	29.85063131013885	
1.5815298896716309E12	1.0	5.608096897295503	178.31360946745562	1457.8754578754579	100.18815184221266	29.85063131013885	
1.581529889691162E12	1.0	5.602991665709436	178.4760820045558	1457.8754578754579	100.18815184221266	29.85063131013885	
1.5815298897106934E12	1.0	5.602991665709436	178.4760820045558	1454.9450549450548	100.18543940087473	29.85063131013885	
1.5815298897302246E12	1.0	5.602991665709436	178.4760820045558	1452.7472527472526	100.18543940087473	29.85063131013885	
1.5815298897497559E12	1.0	5.5927812025373	178.80191693290735	1452.014652014652	100.19086428608371	29.85063131013885	
1.581529889769287E12	1.0	5.587675970951233	178.96528095020557	1449.084249084249	100.18543940087473	29.85063131013885	
1.5815298897888184E12	1.0	5.587675970951233	178.96528095020557	1446.8864468864467	100.18543940087473	29.85063131013885	
1.5815298898083496E12	1.0	5.587675970951233	178.96528095020557	1446.153846153846	100.18001452579807	29.85063131013885	
1.5815298898278809E12	1.0	5.582570739365165	179.12894375857337	1445.4212454212454	100.18001452579807	29.85063131013885	
1.581529889847412E12	1.0	5.587675970951233	178.96528095020557	1442.4908424908424	100.18815184221266	29.85063131013885	
1.5815298898669434E12	1.0	5.582570739365165	179.12894375857337	1443.2234432234432	100.19086428608371	29.85063131013885	
1.5815298898864746E12	1.0	5.577465507779097	179.2929061784897	1441.0256410256409	100.18543940087473	29.85063131013885	
1.5815298899060059E12	1.0	5.577465507779097	179.2929061784897	1441.0256410256409	100.18543940087473	29.85063131013885	
1.581529889925537E12	1.0	5.577465507779097	179.2929061784897	1441.0256410256409	100.18001452579807	29.85063131013885	
1.5815298899450684E12	1.0	5.57236027619303	179.4571690334402	1441.0256410256409	100.19086428608371	29.85063131013885	
1.5815298899645996E12	1.0	5.567255044606961	179.6217331499312	1438.095238095238	100.18815184221266	29.85063131013885	
1.5815298899841309E12	1.0	5.567255044606961	179.6217331499312	1435.164835164835	100.18272696206986	29.85063131013885	
1.581529890003662E12	1.0	5.562149813020893	179.78659935750343	1433.6996336996335	100.18543940087473	29.85063131013885	
1.5815298900231934E12	1.0	5.567255044606961	179.6217331499312	1429.3040293040292	100.18001452579807	29.85063131013885	
1.5815298900427246E12	1.0	5.562149813020893	179.78659935750343	1430.7692307692307	100.19086428608371	29.85063131013885	
1.5815298900622559E12	1.0	5.562149813020893	179.78659935750343	1427.8388278388277	100.18543940087473	29.85063131013885	
1.581529890081787E12	1.0	5.562149813020893	179.78659935750343	1427.106227106227	100.18543940087473	29.85063131013885	
1.5815298901013184E12	1.0	5.562149813020893	179.78659935750343	1426.3736263736262	100.18787747815398	29.865411497239258	
1.5815298901208496E12	1.0	5.557044581434826	179.95176848874596	1425.6410256410256	100.19058998447338	29.865411497239258	
1.5815298901403809E12	1.0	5.551939349848757	180.11724137931034	1427.106227106227	100.18787747815398	29.865411497239258	
1.581529890159912E12	1.0	5.557044581434826	179.95176848874596	1424.1758241758241	100.19058998447338	29.865411497239258	
1.5815298901794434E12	1.0	5.557044581434826	179.95176848874596	1425.6410256410256	100.19330249332597	29.865411497239258	
1.5815298901989746E12	1.0	5.551939349848757	180.11724137931034	1426.3736263736262	100.18787747815398	29.865411497239258	
1.5815298902185059E12	1.0	5.557044581434826	179.95176848874596	1424.1758241758241	100.19330249332597	29.865411497239258	
1.581529890238037E12	1.0	5.551939349848757	180.11724137931034	1425.6410256410256	100.19330249332597	29.865411497239258	
1.5815298902575684E12	1.0	5.551939349848757	180.11724137931034	1423.4432234432234	100.19058998447338	29.865411497239258	
1.5815298902770996E12	1.0	5.551939349848757	180.11724137931034	1422.7106227106226	100.19330249332597	29.865411497239258	
1.5815298902966309E12	1.0	5.557044581434826	179.95176848874596	1421.9780219780218	100.18787747815398	29.865411497239258	
1.581529890316162E12	1.0	5.557044581434826	179.95176848874596	1424.9084249084249	100.19058998447338	29.865411497239258	
1.5815298903356934E12	1.0	5.562149813020893	179.78659935750343	1426.3736263736262	100.19058998447338	29.865411497239258	
1.5815298903552246E12	1.0	5.551939349848757	180.11724137931034	1426.3736263736262	100.18787747815398	29.865411497239258	
1.5815298903747559E12	1.0	5.557044581434826	179.95176848874596	1424.1758241758241	100.19330249332597	29.865411497239258	
1.581529890394287E12	1.0	5.557044581434826	179.95176848874596	1425.6410256410256	100.18787747815398	29.865411497239258	
1.5815298904138184E12	1.0	5.557044581434826	179.95176848874596	1427.106227106227	100.19058998447338	29.865411497239258	
1.5815298904333496E12	1.0	5.557044581434826	179.95176848874596	1427.8388278388277	100.18787747815398	29.865411497239258	
1.5815298904528809E12	1.0	5.557044581434826	179.95176848874596	1427.8388278388277	100.19330249332597	29.865411497239258	
1.581529890472412E12	1.0	5.557044581434826	179.95176848874596	1427.8388278388277	100.19601500471177	29.865411497239258	
1.5815298904919434E12	1.0	5.557044581434826	179.95176848874596	1427.8388278388277	100.18787747815398	29.865411497239258	
1.5815298905114746E12	1.0	5.557044581434826	179.95176848874596	1428.5714285714284	100.19058998447338	29.865411497239258	
1.5815298905310059E12	1.0	5.557044581434826	179.95176848874596	1427.8388278388277	100.19601500471177	29.865411497239258	
1.581529890550537E12	1.0	5.562149813020893	179.78659935750343	1427.8388278388277	100.19058998447338	29.865411497239258	
1.5815298905700684E12	1.0	5.567255044606961	179.6217331499312	1427.106227106227	100.19330249332597	29.865411497239258	
1.5815298905895996E12	1.0	5.57236027619303	179.4571690334402	1429.3040293040292	100.18787747815398	29.865411497239258	
1.5815298906091309E12	1.0	5.567255044606961	179.6217331499312	1432.2344322344322	100.18787747815398	29.865411497239258	
1.581529890628662E12	1.0	5.567255044606961	179.6217331499312	1432.2344322344322	100.18787747815398	29.865411497239258	
1.5815298906481934E12	1.0	5.567255044606961	179.6217331499312	1432.2344322344322	100.18516497436778	29.865411497239258	
1.5815298906677246E12	1.0	5.57236027619303	179.4571690334402	1431.5018315018315	100.18245247311478	29.865411497239258	
1.5815298906872559E12	1.0	5.57236027619303	179.4571690334402	1432.9670329670328	100.18516497436778	29.865411497239258	
1.581529890706787E12	1.0	5.57236027619303	179.4571690334402	1432.9670329670328	100.19058998447338	29.865411497239258	
1.5815298907263184E12	1.0	5.57236027619303	179.4571690334402	1433.6996336996335	100.18787747815398	29.865411497239258	
1.5815298907458496E12	1.0	5.577465507779097	179.2929061784897	1433.6996336996335	100.18787747815398	29.865411497239258	
1.5815298907653809E12	1.0	5.57236027619303	179.4571690334402	1437.3626373626373	100.18787747815398	29.865411497239258	
1.581529890784912E12	1.0	5.577465507779097	179.2929061784897	1435.164835164835	100.18787747815398	29.865411497239258	
1.5815298908044434E12	1.0	5.577465507779097	179.2929061784897	1438.095238095238	100.19058998447338	29.865411497239258	
1.5815298908239746E12	1.0	5.577465507779097	179.2929061784897	1439.5604395604394	100.19330249332597	29.865411497239258	
1.5815298908435059E12	1.0	5.582570739365165	179.12894375857337	1440.2930402930401	100.19058998447338	29.865411497239258	
1.581529890863037E12	1.0	5.587675970951233	178.96528095020557	1438.8278388278388	100.18787747815398	29.865411497239258	
1.5815298908825684E12	1.0	5.5927812025373	178.80191693290735	1441.7582417582416	100.19330249332597	29.865411497239258	
1.5815298909020996E12	1.0	5.597886434123368	178.63885088919287	1444.6886446886447	100.18516497436778	29.865411497239258	
1.5815298909216309E12	1.0	5.597886434123368	178.63885088919287	1448.3516483516482	100.18787747815398	29.865411497239258	
1.581529890941162E12	1.0	5.597886434123368	178.63885088919287	1450.5494505494505	100.19058998447338	29.865411497239258	
1.5815298909606934E12	1.0	5.602991665709436	178.4760820045558	1452.014652014652	100.18787747815398	29.865411497239258	
1.5815298909802246E12	1.0	5.608096897295503	178.31360946745562	1451.2820512820513	100.18516497436778	29.865411497239258	
1.5815298909997559E12	1.0	5.608096897295503	178.31360946745562	1454.9450549450548	100.18787747815398	29.865411497239258	
1.581529891019287E12	1.0	5.613202128881572	178.1514324693042	1456.4102564102564	100.19058998447338	29.865411497239258	
1.5815298910388184E12	1.0	5.613202128881572	178.1514324693042	1457.8754578754579	100.18516497436778	29.865411497239258	
1.5815298910583496E12	1.0	5.6183073604676395	177.9895502044525	1458.6080586080584	100.19330249332597	29.865411497239258	
1.5815298910778809E12	1.0	5.6183073604676395	177.9895502044525	1462.2710622710622	100.18787747815398	29.865411497239258	
1.581529891097412E12	1.0	5.6183073604676395	177.9895502044525	1463.7362637362637	100.18950287618435	29.875264956761384	
1.5815298911169434E12	1.0	5.623412592053707	177.82796187017703	1465.201465201465	100.18950287618435	29.875264956761384	
1.5815298911364746E12	1.0	5.628517823639775	177.66666666666666	1464.4688644688645	100.19221542582493	29.875264956761384	
1.5815298911560059E12	1.0	5.628517823639775	177.66666666666666	1468.131868131868	100.19221542582493	29.875264956761384	
1.581529891175537E12	1.0	5.628517823639775	177.66666666666666	1469.5970695970695	100.18950287618435	29.875264956761384	
1.5815298911950684E12	1.0	5.623412592053707	177.82796187017703	1470.3296703296703	100.19221542582493	29.875264956761384	
1.5815298912145996E12	1.0	5.633623055225843	177.5056637970095	1467.3992673992673	100.184077784503	29.875264956761384	
1.5815298912341309E12	1.0	5.63872828681191	177.34495246717972	1470.3296703296703	100.19221542582493	29.875264956761384	
1.581529891253662E12	1.0	5.648938749984047	177.0244012652508	1474.7252747252746	100.19221542582493	29.875264956761384	
1.5815298912731934E12	1.0	5.659149213156182	176.70500676589987	1479.120879120879	100.18950287618435	29.875264956761384	
1.5815298912927246E12	1.0	5.66425444474225	176.54574132492112	1486.4468864468863	100.184077784503	29.875264956761384	
1.5815298913122559E12	1.0	5.669359676328318	176.38676271949572	1337.7289377289376	100.19221542582493	29.875264956761384	
1.581529891331787E12	1.0	5.669359676328318	176.38676271949572	1268.8644688644688	100.18679032907703	29.875264956761384	
1.5815298913513184E12	1.0	5.674464907914385	176.2280701754386	1234.4322344322343	100.19492797799879	29.875264956761384	
1.5815298913708496E12	1.0	5.674464907914385	176.2280701754386	1216.8498168498168	100.18679032907703	29.875264956761384	
1.5815298913903809E12	1.0	5.674464907914385	176.2280701754386	1208.058608058608	100.18136524246228	29.875264956761384	
1.581529891409912E12	1.0	5.679570139500453	176.0696629213483	1203.6630036630036	100.184077784503	29.875264956761384	
1.5815298914294434E12	1.0	5.684675371086521	175.91154018859453	1204.3956043956043	100.19221542582493	29.875264956761384	
1.5815298914489746E12	1.0	5.684675371086521	175.91154018859453	1202.197802197802	100.18679032907703	29.875264956761384	
1.5815298914685059E12	1.0	5.689780602672588	175.75370121130553	1200.7326007326008	100.19492797799879	29.875264956761384	
1.581529891488037E12	1.0	5.694885834258656	175.5961452263559	1202.9304029304028	100.18950287618435	29.875264956761384	
1.5815298915075684E12	1.0	5.699991065844724	175.43887147335423	1204.3956043956043	100.19221542582493	29.875264956761384	
1.5815298915270996E12	1.0	5.705096297430792	175.28187919463087	1208.7912087912086	100.19221542582493	29.875264956761384	
1.5815298915466309E12	1.0	5.705096297430792	175.28187919463087	1208.058608058608	100.18950287618435	29.875264956761384	
1.581529891566162E12	1.0	5.710201529016859	175.12516763522575	1208.058608058608	100.19221542582493	29.875264956761384	
1.5815298915856934E12	1.0	5.710201529016859	175.12516763522575	1210.2564102564102	100.19492797799879	29.875264956761384	
1.5815298916052246E12	1.0	5.715306760602927	174.9687360428763	1212.4542124542124	100.19221542582493	29.875264956761384	
1.5815298916247559E12	1.0	5.715306760602927	174.9687360428763	1213.1868131868132	100.19492797799879	29.875264956761384	
1.581529891644287E12	1.0	5.715306760602927	174.9687360428763	1213.9194139194137	100.18950287618435	29.875264956761384	
1.5815298916638184E12	1.0	5.715306760602927	174.9687360428763	1213.9194139194137	100.184077784503	29.875264956761384	
1.5815298916833496E12	1.0	5.715306760602927	174.9687360428763	1213.9194139194137	100.18950287618435	29.875264956761384	
1.5815298917028809E12	1.0	5.720411992188995	174.81258366800537	1214.6520146520145	100.19221542582493	29.875264956761384	
1.581529891722412E12	1.0	5.720411992188995	174.81258366800537	1217.5824175824175	100.18679032907703	29.875264956761384	
1.5815298917419434E12	1.0	5.720411992188995	174.81258366800537	1219.047619047619	100.18950287618435	29.875264956761384	
1.5815298917614746E12	1.0	5.720411992188995	174.81258366800537	1219.047619047619	100.18950287618435	29.875264956761384	
1.5815298917810059E12	1.0	5.720411992188995	174.81258366800537	1219.7802197802198	100.184077784503	29.875264956761384	
1.581529891800537E12	1.0	5.730622455361131	174.5011135857461	1219.7802197802198	100.19492797799879	29.875264956761384	
1.5815298918200684E12	1.0	5.720411992188995	174.81258366800537	1221.245421245421	100.18679032907703	29.875264956761384	
1.5815298918395996E12	1.0	5.730622455361131	174.5011135857461	1220.5128205128203	100.18679032907703	29.875264956761384	
1.5815298918591309E12	1.0	5.725517223775063	174.65670976370933	1221.245421245421	100.18950287618435	29.875264956761384	
1.581529891878662E12	1.0	5.725517223775063	174.65670976370933	1218.3150183150183	100.184077784503	29.875264956761384	
1.5815298918981934E12	1.0	5.725517223775063	174.65670976370933	1216.8498168498168	100.18950287618435	29.875264956761384	
1.5815298919177246E12	1.0	5.730622455361131	174.5011135857461	1216.117216117216	100.18950287618435	29.875264956761384	
1.5815298919372559E12	1.0	5.735727686947199	174.34579439252337	1219.047619047619	100.18950287618435	29.875264956761384	
1.581529891956787E12	1.0	5.725517223775063	174.65670976370933	1221.245421245421	100.19221542582493	29.875264956761384	
1.5815298919763184E12	1.0	5.740832918533267	174.1907514450867	1218.3150183150183	100.19221542582493	29.875264956761384	
1.5815298919958496E12	1.0	5.730622455361131	174.5011135857461	1223.4432234432234	100.18950287618435	29.875264956761384	
1.5815298920153809E12	1.0	5.735727686947199	174.34579439252337	1222.7106227106226	100.19764053270595	29.875264956761384	
1.581529892034912E12	1.0	5.735727686947199	174.34579439252337	1222.7106227106226	100.19221542582493	29.875264956761384	
1.5815298920544434E12	1.0	5.735727686947199	174.34579439252337	1222.7106227106226	100.18950287618435	29.875264956761384	
1.5815298920739746E12	1.0	5.7459381501193345	174.03598400710797	1223.4432234432234	100.18950287618435	29.875264956761384	
1.5815298920935059E12	1.0	5.7459381501193345	174.03598400710797	1223.4432234432234	100.19112828475477	29.885118417447664	
1.581529892113037E12	1.0	5.740832918533267	174.1907514450867	1223.4432234432234	100.18841569432618	29.885118417447664	
1.5815298921325684E12	1.0	5.7459381501193345	174.03598400710797	1226.3736263736264	100.19112828475477	29.885118417447664	
1.5815298921520996E12	1.0	5.75614861329147	173.72727272727275	1225.6410256410256	100.19112828475477	29.885118417447664	
1.5815298921716309E12	1.0	5.740832918533267	174.1907514450867	1228.5714285714284	100.19384087771674	29.885118417447664	
1.581529892191162E12	1.0	5.740832918533267	174.1907514450867	1229.3040293040292	100.19112828475477	29.885118417447664	
1.5815298922106934E12	1.0	5.740832918533267	174.1907514450867	1228.5714285714284	100.19655347321205	29.885118417447664	
1.5815298922302246E12	1.0	5.740832918533267	174.1907514450867	1228.5714285714284	100.19384087771674	29.885118417447664	
1.5815298922497559E12	1.0	5.740832918533267	174.1907514450867	1229.3040293040292	100.19384087771674	29.885118417447664	
1.581529892269287E12	1.0	5.776569539635741	173.11312417145385	1229.3040293040292	100.19655347321205	29.885118417447664	
1.5815298922888184E12	1.0	5.786780002807876	172.8076753418615	1234.4322344322343	100.19112828475477	29.885118417447664	
1.5815298923083496E12	1.0	5.786780002807876	172.8076753418615	1237.3626373626373	100.19655347321205	29.885118417447664	
1.5815298923278809E12	1.0	5.786780002807876	172.8076753418615	1239.5604395604396	100.19384087771674	29.885118417447664	
1.581529892347412E12	1.0	5.786780002807876	172.8076753418615	1240.2930402930401	100.19384087771674	29.885118417447664	
1.5815298923669434E12	1.0	5.786780002807876	172.8076753418615	1240.2930402930401	100.18841569432618	29.885118417447664	
1.5815298923864746E12	1.0	5.791885234393945	172.65535478184225	1241.0256410256409	100.18570310643092	29.885118417447664	
1.5815298924060059E12	1.0	5.786780002807876	172.8076753418615	1243.956043956044	100.19112828475477	29.885118417447664	
1.581529892425537E12	1.0	5.786780002807876	172.8076753418615	1242.4908424908424	100.19112828475477	29.885118417447664	
1.5815298924450684E12	1.0	5.807200929152148	172.20000000000002	1241.0256410256409	100.19112828475477	29.885118417447664	
1.5815298924645996E12	1.0	5.807200929152148	172.20000000000002	1246.153846153846	100.19112828475477	29.885118417447664	
1.5815298924841309E12	1.0	5.807200929152148	172.20000000000002	1247.6190476190475	100.19112828475477	29.885118417447664	
1.581529892503662E12	1.0	5.802095697566081	172.35151781786186	1249.084249084249	100.19112828475477	29.885118417447664	
1.5815298925231934E12	1.0	5.807200929152148	172.20000000000002	1252.014652014652	100.18841569432618	29.885118417447664	
1.5815298925427246E12	1.0	5.812306160738216	172.0487483530962	1250.5494505494505	100.19655347321205	29.885118417447664	
1.5815298925622559E12	1.0	5.807200929152148	172.20000000000002	1253.4798534798533	100.19112828475477	29.885118417447664	
1.581529892581787E12	1.0	5.807200929152148	172.20000000000002	1252.014652014652	100.19384087771674	29.885118417447664	
1.5815298926013184E12	1.0	5.807200929152148	172.20000000000002	1251.2820512820513	100.18841569432618	29.885118417447664	
1.5815298926208496E12	1.0	5.812306160738216	172.0487483530962	1250.5494505494505	100.19384087771674	29.885118417447664	
1.5815298926403809E12	1.0	5.807200929152148	172.20000000000002	1253.4798534798533	100.19655347321205	29.885118417447664	
1.581529892659912E12	1.0	5.812306160738216	172.0487483530962	1252.014652014652	100.19655347321205	29.885118417447664	
1.5815298926794434E12	1.0	5.807200929152148	172.20000000000002	1254.212454212454	100.19384087771674	29.885118417447664	
1.5815298926989746E12	1.0	5.807200929152148	172.20000000000002	1252.014652014652	100.19384087771674	29.885118417447664	
1.5815298927185059E12	1.0	5.807200929152148	172.20000000000002	1251.2820512820513	100.18841569432618	29.885118417447664	
1.581529892738037E12	1.0	5.807200929152148	172.20000000000002	1250.5494505494505	100.19655347321205	29.885118417447664	
1.5815298927575684E12	1.0	5.807200929152148	172.20000000000002	1250.5494505494505	100.19384087771674	29.885118417447664	
1.5815298927770996E12	1.0	5.802095697566081	172.35151781786186	1250.5494505494505	100.19384087771674	29.885118417447664	
1.5815298927966309E12	1.0	5.802095697566081	172.35151781786186	1252.7472527472526	100.19112828475477	29.885118417447664	
1.581529892816162E12	1.0	5.802095697566081	172.35151781786186	1253.4798534798533	100.19384087771674	29.885118417447664	
1.5815298928356934E12	1.0	5.802095697566081	172.35151781786186	1254.212454212454	100.19112828475477	29.885118417447664	
1.5815298928552246E12	1.0	5.802095697566081	172.35151781786186	1254.9450549450548	100.19112828475477	29.885118417447664	
1.5815298928747559E12	1.0	5.802095697566081	172.35151781786186	1254.9450549450548	100.18841569432618	29.885118417447664	
1.581529892894287E12	1.0	5.802095697566081	172.35151781786186	1254.9450549450548	100.19384087771674	29.885118417447664	
1.5815298929138184E12	1.0	5.802095697566081	172.35151781786186	1254.9450549450548	100.19112828475477	29.885118417447664	
1.5815298929333496E12	1.0	5.796990465980013	172.50330250990754	1254.9450549450548	100.19112828475477	29.885118417447664	
1.5815298929528809E12	1.0	5.796990465980013	172.50330250990754	1252.014652014652	100.19384087771674	29.885118417447664	
1.581529892972412E12	1.0	5.796990465980013	172.50330250990754	1250.5494505494505	100.19112828475477	29.885118417447664	
1.5815298929919434E12	1.0	5.796990465980013	172.50330250990754	1249.8168498168498	100.19112828475477	29.885118417447664	
1.5815298930114746E12	1.0	5.802095697566081	172.35151781786186	1249.084249084249	100.18570310643092	29.885118417447664	
1.5815298930310059E12	1.0	5.796990465980013	172.50330250990754	1252.014652014652	100.18841569432618	29.885118417447664	
1.581529893050537E12	1.0	5.791885234393945	172.65535478184225	1250.5494505494505	100.18299052106904	29.885118417447664	
1.5815298930700684E12	1.0	5.791885234393945	172.65535478184225	1249.084249084249	100.19112828475477	29.885118417447664	
1.5815298930895996E12	1.0	5.796990465980013	172.50330250990754	1248.3516483516482	100.19275370386363	29.8949718792981	
1.5815298931091309E12	1.0	5.796990465980013	172.50330250990754	1248.3516483516482	100.19004107011357	29.8949718792981	
1.581529893128662E12	1.0	5.791885234393945	172.65535478184225	1248.3516483516482	100.19817897896411	29.8949718792981	
1.5815298931481934E12	1.0	5.791885234393945	172.65535478184225	1247.6190476190475	100.19817897896411	29.8949718792981	
1.5815298931677246E12	1.0	5.791885234393945	172.65535478184225	1247.6190476190475	100.19546634014715	29.8949718792981	
1.5815298931872559E12	1.0	5.791885234393945	172.65535478184225	1247.6190476190475	100.19275370386363	29.8949718792981	
1.581529893206787E12	1.0	5.791885234393945	172.65535478184225	1247.6190476190475	100.19275370386363	29.8949718792981	
1.5815298932263184E12	1.0	5.791885234393945	172.65535478184225	1247.6190476190475	100.19275370386363	29.8949718792981	
1.5815298932458496E12	1.0	5.786780002807876	172.8076753418615	1246.8864468864467	100.19004107011357	29.8949718792981	
1.5815298932653809E12	1.0	5.786780002807876	172.8076753418615	1243.956043956044	100.19275370386363	29.8949718792981	
1.581529893284912E12	1.0	5.786780002807876	172.8076753418615	1242.4908424908424	100.19275370386363	29.8949718792981	
1.5815298933044434E12	1.0	5.786780002807876	172.8076753418615	1241.7582417582416	100.19546634014715	29.8949718792981	
1.5815298933239746E12	1.0	5.786780002807876	172.8076753418615	1241.0256410256409	100.19275370386363	29.8949718792981	
1.5815298933435059E12	1.0	5.786780002807876	172.8076753418615	1241.0256410256409	100.19275370386363	29.8949718792981	
1.581529893363037E12	1.0	5.781674771221809	172.96026490066225	1241.0256410256409	100.19546634014715	29.8949718792981	
1.5815298933825684E12	1.0	5.786780002807876	172.8076753418615	1243.2234432234432	100.19004107011357	29.8949718792981	
1.5815298934020996E12	1.0	5.781674771221809	172.96026490066225	1242.4908424908424	100.19004107011357	29.8949718792981	
1.5815298934216309E12	1.0	5.781674771221809	172.96026490066225	1243.956043956044	100.18732843889693	29.8949718792981	
1.581529893441162E12	1.0	5.781674771221809	172.96026490066225	1244.6886446886447	100.19275370386363	29.8949718792981	
1.5815298934606934E12	1.0	5.781674771221809	172.96026490066225	1245.4212454212454	100.19546634014715	29.8949718792981	
1.5815298934802246E12	1.0	5.776569539635741	173.11312417145385	1245.4212454212454	100.19004107011357	29.8949718792981	
1.5815298934997559E12	1.0	5.776569539635741	173.11312417145385	1242.4908424908424	100.19004107011357	29.8949718792981	
1.581529893519287E12	1.0	5.776569539635741	173.11312417145385	1241.0256410256409	100.19004107011357	29.8949718792981	
1.5815298935388184E12	1.0	5.776569539635741	173.11312417145385	1241.0256410256409	100.19275370386363	29.8949718792981	
1.5815298935583496E12	1.0	5.776569539635741	173.11312417145385	1240.2930402930401	100.18732843889693	29.8949718792981	
1.5815298935778809E12	1.0	5.781674771221809	172.96026490066225	1240.2930402930401	100.19275370386363	29.8949718792981	
1.581529893597412E12	1.0	5.771464308049673	173.26625386996906	1243.2234432234432	100.18732843889693	29.8949718792981	
1.5815298936169434E12	1.0	5.781674771221809	172.96026490066225	1241.0256410256409	100.19275370386363	29.8949718792981	
1.5815298936364746E12	1.0	5.771464308049673	173.26625386996906	1243.956043956044	100.19275370386363	29.8949718792981	
1.5815298936560059E12	1.0	5.776569539635741	173.11312417145385	1241.0256410256409	100.19004107011357	29.8949718792981	
1.581529893675537E12	1.0	5.776569539635741	173.11312417145385	1240.2930402930401	100.18732843889693	29.8949718792981	
1.5815298936950684E12	1.0	5.776569539635741	173.11312417145385	1239.5604395604396	100.19275370386363	29.8949718792981	
1.5815298937145996E12	1.0	5.776569539635741	173.11312417145385	1239.5604395604396	100.19275370386363	29.8949718792981	
1.5815298937341309E12	1.0	5.771464308049673	173.26625386996906	1239.5604395604396	100.19546634014715	29.8949718792981	
1.581529893753662E12	1.0	5.771464308049673	173.26625386996906	1238.8278388278388	100.19275370386363	29.8949718792981	
1.5815298937731934E12	1.0	5.771464308049673	173.26625386996906	1238.8278388278388	100.19275370386363	29.8949718792981	
1.5815298937927246E12	1.0	5.776569539635741	173.11312417145385	1238.8278388278388	100.19817897896411	29.8949718792981	
1.5815298938122559E12	1.0	5.771464308049673	173.26625386996906	1238.8278388278388	100.19546634014715	29.8949718792981	
1.581529893831787E12	1.0	5.771464308049673	173.26625386996906	1238.8278388278388	100.19275370386363	29.8949718792981	
1.5815298938513184E12	1.0	5.771464308049673	173.26625386996906	1238.8278388278388	100.19275370386363	29.8949718792981	
1.5815298938708496E12	1.0	5.771464308049673	173.26625386996906	1238.8278388278388	100.19546634014715	29.8949718792981	
1.5815298938903809E12	1.0	5.771464308049673	173.26625386996906	1238.095238095238	100.18461581021371	29.8949718792981	
1.581529893909912E12	1.0	5.766359076463605	173.41965471447546	1238.095238095238	100.18732843889693	29.8949718792981	
1.5815298939294434E12	1.0	5.771464308049673	173.26625386996906	1235.164835164835	100.19275370386363	29.8949718792981	
1.5815298939489746E12	1.0	5.771464308049673	173.26625386996906	1236.6300366300366	100.18732843889693	29.8949718792981	
1.5815298939685059E12	1.0	5.771464308049673	173.26625386996906	1237.3626373626373	100.19275370386363	29.8949718792981	
1.581529893988037E12	1.0	5.771464308049673	173.26625386996906	1238.095238095238	100.18461581021371	29.8949718792981	
1.5815298940075684E12	1.0	5.771464308049673	173.26625386996906	1238.095238095238	100.19546634014715	29.8949718792981	
1.5815298940270996E12	1.0	5.771464308049673	173.26625386996906	1238.095238095238	100.19004107011357	29.8949718792981	
1.5815298940466309E12	1.0	5.771464308049673	173.26625386996906	1238.095238095238	100.19004107011357	29.8949718792981	
1.581529894066162E12	1.0	5.771464308049673	173.26625386996906	1238.095238095238	100.18732843889693	29.8949718792981	
1.5815298940856934E12	1.0	5.771464308049673	173.26625386996906	1238.095238095238	100.18814110908119	29.899898610659875	
1.5815298941052246E12	1.0	5.766359076463605	173.41965471447546	1238.095238095238	100.19356641736947	29.899898610659875	
1.5815298941247559E12	1.0	5.771464308049673	173.26625386996906	1235.164835164835	100.19356641736947	29.899898610659875	
1.581529894144287E12	1.0	5.771464308049673	173.26625386996906	1236.6300366300366	100.19356641736947	29.899898610659875	
1.5815298941638184E12	1.0	5.771464308049673	173.26625386996906	1237.3626373626373	100.19356641736947	29.899898610659875	
1.5815298941833496E12	1.0	5.771464308049673	173.26625386996906	1238.095238095238	100.18814110908119	29.899898610659875	
1.5815298942028809E12	1.0	5.771464308049673	173.26625386996906	1238.095238095238	100.19085376195859	29.899898610659875	
1.581529894222412E12	1.0	5.771464308049673	173.26625386996906	1238.095238095238	100.19085376195859	29.899898610659875	
1.5815298942419434E12	1.0	5.771464308049673	173.26625386996906	1238.095238095238	100.18814110908119	29.899898610659875	
1.5815298942614746E12	1.0	5.771464308049673	173.26625386996906	1238.095238095238	100.19627907531383	29.899898610659875	
1.5815298942810059E12	1.0	5.771464308049673	173.26625386996906	1238.095238095238	100.19085376195859	29.899898610659875	
1.581529894300537E12	1.0	5.771464308049673	173.26625386996906	1238.095238095238	100.18814110908119	29.899898610659875	
1.5815298943200684E12	1.0	5.771464308049673	173.26625386996906	1238.095238095238	100.19627907531383	29.899898610659875	
1.5815298943395996E12	1.0	5.771464308049673	173.26625386996906	1238.095238095238	100.18814110908119	29.899898610659875	
1.5815298943591309E12	1.0	5.776569539635741	173.11312417145385	1238.095238095238	100.19085376195859	29.899898610659875	
1.581529894378662E12	1.0	5.776569539635741	173.11312417145385	1238.8278388278388	100.19356641736947	29.899898610659875	
1.5815298943981934E12	1.0	5.781674771221809	172.96026490066225	1238.8278388278388	100.19085376195859	29.899898610659875	
1.5815298944177246E12	1.0	5.776569539635741	173.11312417145385	1242.4908424908424	100.18814110908119	29.899898610659875	
1.5815298944372559E12	1.0	5.776569539635741	173.11312417145385	1241.0256410256409	100.19356641736947	29.899898610659875	
1.581529894456787E12	1.0	5.776569539635741	173.11312417145385	1241.0256410256409	100.19899173579167	29.899898610659875	
1.5815298944763184E12	1.0	5.781674771221809	172.96026490066225	1240.2930402930401	100.19085376195859	29.899898610659875	
1.5815298944958496E12	1.0	5.781674771221809	172.96026490066225	1243.2234432234432	100.19356641736947	29.899898610659875	
1.5815298945153809E12	1.0	5.766359076463605	173.41965471447546	1244.6886446886447	100.19085376195859	29.899898610659875	
1.581529894534912E12	1.0	5.776569539635741	173.11312417145385	1238.095238095238	100.18814110908119	29.899898610659875	
1.5815298945544434E12	1.0	5.781674771221809	172.96026490066225	1239.5604395604396	100.18814110908119	29.899898610659875	
1.5815298945739746E12	1.0	5.781674771221809	172.96026490066225	1242.4908424908424	100.18814110908119	29.899898610659875	
1.5815298945935059E12	1.0	5.781674771221809	172.96026490066225	1244.6886446886447	100.18542845873726	29.899898610659875	
1.581529894613037E12	1.0	5.781674771221809	172.96026490066225	1244.6886446886447	100.19356641736947	29.899898610659875	
1.5815298946325684E12	1.0	5.781674771221809	172.96026490066225	1245.4212454212454	100.18542845873726	29.899898610659875	
1.5815298946520996E12	1.0	5.781674771221809	172.96026490066225	1245.4212454212454	100.18542845873726	29.899898610659875	
1.5815298946716309E12	1.0	5.781674771221809	172.96026490066225	1245.4212454212454	100.19356641736947	29.899898610659875	
1.581529894691162E12	1.0	5.786780002807876	172.8076753418615	1245.4212454212454	100.19627907531383	29.899898610659875	
1.5815298947106934E12	1.0	5.786780002807876	172.8076753418615	1243.956043956044	100.18814110908119	29.899898610659875	
1.5815298947302246E12	1.0	5.786780002807876	172.8076753418615	1242.4908424908424	100.19356641736947	29.899898610659875	
1.5815298947497559E12	1.0	5.791885234393945	172.65535478184225	1241.7582417582416	100.19356641736947	29.899898610659875	
1.581529894769287E12	1.0	5.791885234393945	172.65535478184225	1243.956043956044	100.18542845873726	29.899898610659875	
1.5815298947888184E12	1.0	5.786780002807876	172.8076753418615	1246.153846153846	100.19356641736947	29.899898610659875	
1.5815298948083496E12	1.0	5.791885234393945	172.65535478184225	1243.2234432234432	100.18814110908119	29.899898610659875	
1.5815298948278809E12	1.0	5.791885234393945	172.65535478184225	1245.4212454212454	100.18271581092681	29.899898610659875	
1.581529894847412E12	1.0	5.791885234393945	172.65535478184225	1246.153846153846	100.18542845873726	29.899898610659875	
1.5815298948669434E12	1.0	5.791885234393945	172.65535478184225	1246.8864468864467	100.19085376195859	29.899898610659875	
1.5815298948864746E12	1.0	5.791885234393945	172.65535478184225	1246.8864468864467	100.18000316564984	29.899898610659875	
1.5815298949060059E12	1.0	5.791885234393945	172.65535478184225	1246.8864468864467	100.19356641736947	29.899898610659875	
1.581529894925537E12	1.0	5.791885234393945	172.65535478184225	1246.8864468864467	100.19627907531383	29.899898610659875	
1.5815298949450684E12	1.0	5.791885234393945	172.65535478184225	1246.8864468864467	100.18542845873726	29.899898610659875	
1.5815298949645996E12	1.0	5.791885234393945	172.65535478184225	1246.8864468864467	100.18542845873726	29.899898610659875	
1.5815298949841309E12	1.0	5.796990465980013	172.50330250990754	1355.3113553113553	100.18814110908119	29.899898610659875	
1.581529895003662E12	1.0	5.791885234393945	172.65535478184225	1301.8315018315018	100.19085376195859	29.899898610659875	
1.5815298950231934E12	1.0	5.796990465980013	172.50330250990754	1274.7252747252746	100.19356641736947	29.899898610659875	
1.5815298950427246E12	1.0	5.791885234393945	172.65535478184225	1261.5384615384614	100.18814110908119	29.899898610659875	
1.5815298950622559E12	1.0	5.796990465980013	172.50330250990754	1254.9450549450548	100.18542845873726	29.899898610659875	
1.581529895081787E12	1.0	5.796990465980013	172.50330250990754	1252.014652014652	100.18624110989467	29.904825342312687	
1.5815298951013184E12	1.0	5.796990465980013	172.50330250990754	1250.5494505494505	100.18895378189936	29.904825342312687	
1.5815298951208496E12	1.0	5.796990465980013	172.50330250990754	1249.8168498168498	100.1943791335093	29.904825342312687	
1.5815298951403809E12	1.0	5.796990465980013	172.50330250990754	1249.084249084249	100.19166645643757	29.904825342312687	
1.581529895159912E12	1.0	5.796990465980013	172.50330250990754	1249.084249084249	100.18895378189936	29.904825342312687	
1.5815298951794434E12	1.0	5.802095697566081	172.35151781786186	1249.084249084249	100.1943791335093	29.904825342312687	
1.5815298951989746E12	1.0	5.802095697566081	172.35151781786186	1252.014652014652	100.19166645643757	29.904825342312687	
1.5815298952185059E12	1.0	5.802095697566081	172.35151781786186	1253.4798534798533	100.1943791335093	29.904825342312687	
1.581529895238037E12	1.0	5.796990465980013	172.50330250990754	1253.4798534798533	100.19166645643757	29.904825342312687	
1.5815298952575684E12	1.0	5.796990465980013	172.50330250990754	1251.2820512820513	100.19709181311454	29.904825342312687	
1.5815298952770996E12	1.0	5.796990465980013	172.50330250990754	1249.8168498168498	100.18895378189936	29.904825342312687	
1.5815298952966309E12	1.0	5.802095697566081	172.35151781786186	1249.084249084249	100.18895378189936	29.904825342312687	
1.581529895316162E12	1.0	5.817411392324284	171.89776217639317	1252.014652014652	100.1943791335093	29.904825342312687	
1.5815298953356934E12	1.0	5.807200929152148	172.20000000000002	1254.9450549450548	100.18895378189936	29.904825342312687	
1.5815298953552246E12	1.0	5.817411392324284	171.89776217639317	1252.7472527472526	100.18895378189936	29.904825342312687	
1.5815298953747559E12	1.0	5.822516623910351	171.74704077159143	1255.6776556776556	100.18895378189936	29.904825342312687	
1.581529895394287E12	1.0	5.817411392324284	171.89776217639317	1259.3406593406592	100.18895378189936	29.904825342312687	
1.5815298954138184E12	1.0	5.822516623910351	171.74704077159143	1258.6080586080586	100.1943791335093	29.904825342312687	
1.5815298954333496E12	1.0	5.822516623910351	171.74704077159143	1261.5384615384614	100.19166645643757	29.904825342312687	
1.5815298954528809E12	1.0	5.822516623910351	171.74704077159143	1263.003663003663	100.18624110989467	29.904825342312687	
1.581529895472412E12	1.0	5.822516623910351	171.74704077159143	1263.7362637362637	100.1943791335093	29.904825342312687	
1.5815298954919434E12	1.0	5.822516623910351	171.74704077159143	1263.7362637362637	100.18624110989467	29.904825342312687	
1.5815298955114746E12	1.0	5.822516623910351	171.74704077159143	1263.7362637362637	100.19166645643757	29.904825342312687	
1.5815298955310059E12	1.0	5.817411392324284	171.89776217639317	1263.7362637362637	100.1943791335093	29.904825342312687	
1.581529895550537E12	1.0	5.822516623910351	171.74704077159143	1260.8058608058607	100.18895378189936	29.904825342312687	
1.5815298955700684E12	1.0	5.822516623910351	171.74704077159143	1263.003663003663	100.18895378189936	29.904825342312687	
1.5815298955895996E12	1.0	5.822516623910351	171.74704077159143	1263.003663003663	100.18624110989467	29.904825342312687	
1.5815298956091309E12	1.0	5.822516623910351	171.74704077159143	1263.7362637362637	100.18624110989467	29.904825342312687	
1.581529895628662E12	1.0	5.822516623910351	171.74704077159143	1263.7362637362637	100.18352844042346	29.904825342312687	
1.5815298956481934E12	1.0	5.822516623910351	171.74704077159143	1263.7362637362637	100.18895378189936	29.904825342312687	
1.5815298956677246E12	1.0	5.822516623910351	171.74704077159143	1263.7362637362637	100.18352844042346	29.904825342312687	
1.5815298956872559E12	1.0	5.832727087082487	171.44638949671773	1264.4688644688645	100.19166645643757	29.904825342312687	
1.581529895706787E12	1.0	5.822516623910351	171.74704077159143	1265.2014652014652	100.18895378189936	29.904825342312687	
1.5815298957263184E12	1.0	5.822516623910351	171.74704077159143	1264.4688644688645	100.18895378189936	29.904825342312687	
1.5815298957458496E12	1.0	5.822516623910351	171.74704077159143	1264.4688644688645	100.18624110989467	29.904825342312687	
1.5815298957653809E12	1.0	5.822516623910351	171.74704077159143	1264.4688644688645	100.18624110989467	29.904825342312687	
1.581529895784912E12	1.0	5.822516623910351	171.74704077159143	1263.7362637362637	100.18624110989467	29.904825342312687	
1.5815298958044434E12	1.0	5.822516623910351	171.74704077159143	1264.4688644688645	100.18624110989467	29.904825342312687	
1.5815298958239746E12	1.0	5.822516623910351	171.74704077159143	1263.7362637362637	100.18895378189936	29.904825342312687	
1.5815298958435059E12	1.0	5.822516623910351	171.74704077159143	1264.4688644688645	100.18895378189936	29.904825342312687	
1.581529895863037E12	1.0	5.822516623910351	171.74704077159143	1263.7362637362637	100.18895378189936	29.904825342312687	
1.5815298958825684E12	1.0	5.822516623910351	171.74704077159143	1264.4688644688645	100.1943791335093	29.904825342312687	
1.5815298959020996E12	1.0	5.822516623910351	171.74704077159143	1263.7362637362637	100.18352844042346	29.904825342312687	
1.5815298959216309E12	1.0	5.822516623910351	171.74704077159143	1263.7362637362637	100.18081577348578	29.904825342312687	
1.581529895941162E12	1.0	5.832727087082487	171.44638949671773	1263.7362637362637	100.18624110989467	29.904825342312687	
1.5815298959606934E12	1.0	5.827621855496419	171.59658344283838	1265.2014652014652	100.18352844042346	29.904825342312687	
1.5815298959802246E12	1.0	5.822516623910351	171.74704077159143	1262.2710622710622	100.19166645643757	29.904825342312687	
1.5815298959997559E12	1.0	5.822516623910351	171.74704077159143	1263.003663003663	100.18895378189936	29.904825342312687	
1.581529896019287E12	1.0	5.822516623910351	171.74704077159143	1263.7362637362637	100.19166645643757	29.904825342312687	
1.5815298960388184E12	1.0	5.827621855496419	171.59658344283838	1264.4688644688645	100.18352844042346	29.904825342312687	
1.5815298960583496E12	1.0	5.822516623910351	171.74704077159143	1262.2710622710622	100.18624110989467	29.904825342312687	
1.5815298960778809E12	1.0	5.822516623910351	171.74704077159143	1263.003663003663	100.18867907916794	29.919605539017358	
1.581529896097412E12	1.0	5.822516623910351	171.74704077159143	1263.7362637362637	100.18867907916794	29.919605539017358	
1.5815298961169434E12	1.0	5.822516623910351	171.74704077159143	1263.7362637362637	100.18867907916794	29.919605539017358	
1.5815298961364746E12	1.0	5.822516623910351	171.74704077159143	1264.4688644688645	100.19139181615525	29.919605539017358	
1.5815298961560059E12	1.0	5.822516623910351	171.74704077159143	1264.4688644688645	100.19139181615525	29.919605539017358	
1.581529896175537E12	1.0	5.822516623910351	171.74704077159143	1264.4688644688645	100.19681729773072	29.919605539017358	
1.5815298961950684E12	1.0	5.822516623910351	171.74704077159143	1264.4688644688645	100.19410455567616	29.919605539017358	
1.5815298962145996E12	1.0	5.827621855496419	171.59658344283838	1264.4688644688645	100.18596634471429	29.919605539017358	
1.5815298962341309E12	1.0	5.822516623910351	171.74704077159143	1262.2710622710622	100.18867907916794	29.919605539017358	
1.581529896253662E12	1.0	5.822516623910351	171.74704077159143	1263.003663003663	100.19139181615525	29.919605539017358	
1.5815298962731934E12	1.0	5.827621855496419	171.59658344283838	1263.7362637362637	100.18867907916794	29.919605539017358	
1.5815298962927246E12	1.0	5.827621855496419	171.59658344283838	1262.2710622710622	100.19139181615525	29.919605539017358	
1.5815298963122559E12	1.0	5.827621855496419	171.59658344283838	1261.5384615384614	100.18596634471429	29.919605539017358	
1.581529896331787E12	1.0	5.827621855496419	171.59658344283838	1260.8058608058607	100.19681729773072	29.919605539017358	
1.5815298963513184E12	1.0	5.827621855496419	171.59658344283838	1260.07326007326	100.18596634471429	29.919605539017358	
1.5815298963708496E12	1.0	5.827621855496419	171.59658344283838	1260.8058608058607	100.18596634471429	29.919605539017358	
1.5815298963903809E12	1.0	5.832727087082487	171.44638949671773	1260.07326007326	100.19681729773072	29.919605539017358	
1.581529896409912E12	1.0	5.827621855496419	171.59658344283838	1263.003663003663	100.19139181615525	29.919605539017358	
1.5815298964294434E12	1.0	5.827621855496419	171.59658344283838	1261.5384615384614	100.19410455567616	29.919605539017358	
1.5815298964489746E12	1.0	5.827621855496419	171.59658344283838	1260.8058608058607	100.18596634471429	29.919605539017358	
1.5815298964685059E12	1.0	5.832727087082487	171.44638949671773	1260.8058608058607	100.19139181615525	29.919605539017358	
1.581529896488037E12	1.0	5.832727087082487	171.44638949671773	1263.7362637362637	100.19139181615525	29.919605539017358	
1.5815298965075684E12	1.0	5.827621855496419	171.59658344283838	1264.4688644688645	100.19139181615525	29.919605539017358	
1.5815298965270996E12	1.0	5.827621855496419	171.59658344283838	1262.2710622710622	100.19410455567616	29.919605539017358	
1.5815298965466309E12	1.0	5.837832318668554	171.29645824223877	1260.8058608058607	100.18867907916794	29.919605539017358	
1.581529896566162E12	1.0	5.827621855496419	171.59658344283838	1264.4688644688645	100.18596634471429	29.919605539017358	
1.5815298965856934E12	1.0	5.827621855496419	171.59658344283838	1262.2710622710622	100.18867907916794	29.919605539017358	
1.5815298966052246E12	1.0	5.827621855496419	171.59658344283838	1261.5384615384614	100.18596634471429	29.919605539017358	
1.5815298966247559E12	1.0	5.827621855496419	171.59658344283838	1260.07326007326	100.19410455567616	29.919605539017358	
1.581529896644287E12	1.0	5.827621855496419	171.59658344283838	1260.07326007326	100.19139181615525	29.919605539017358	
1.5815298966638184E12	1.0	5.827621855496419	171.59658344283838	1260.07326007326	100.19410455567616	29.919605539017358	
1.5815298966833496E12	1.0	5.832727087082487	171.44638949671773	1260.07326007326	100.19139181615525	29.919605539017358	
1.5815298967028809E12	1.0	5.832727087082487	171.44638949671773	1263.003663003663	100.19139181615525	29.919605539017358	
1.581529896722412E12	1.0	5.832727087082487	171.44638949671773	1264.4688644688645	100.18596634471429	29.919605539017358	
1.5815298967419434E12	1.0	5.832727087082487	171.44638949671773	1265.2014652014652	100.18867907916794	29.919605539017358	
1.5815298967614746E12	1.0	5.832727087082487	171.44638949671773	1265.9340659340658	100.18867907916794	29.919605539017358	
1.5815298967810059E12	1.0	5.832727087082487	171.44638949671773	1265.9340659340658	100.18596634471429	29.919605539017358	
