"sep=	"
Shimmer_5DF7_Timestamp_Unix_CAL	Shimmer_5DF7_GSR_Range_CAL	Shimmer_5DF7_GSR_Skin_Conductance_CAL	Shimmer_5DF7_GSR_Skin_Resistance_CAL	Shimmer_5DF7_PPG_A13_CAL	Shimmer_5DF7_Pressure_BMP280_CAL	Shimmer_5DF7_Temperature_BMP280_CAL	
ms	no_units	uS	kOhms	mV	kPa	Degrees Celsius	
1.581681016815033E12	3.0	0.4504384504384505	2220.0591424346967	1005.1282051282051	99.74231607486482	25.88470908967429	
1.5816810168345642E12	3.0	0.4504384504384505	2220.0591424346967	1024.9084249084249	99.73692565221864	25.88470908967429	
1.5816810168540955E12	0.0	2.2415395549723884	446.1219512195127	1034.4322344322343	99.74231607486482	25.88470908967429	
1.5816810168736267E12	0.0	2.2415395549723884	446.1219512195127	1016.117216117216	99.72614483694761	25.88470908967429	
1.581681016893158E12	0.0	2.2415395549723884	446.1219512195127	1032.2344322344322	99.73692565221864	25.88470908967429	
1.5816810169126892E12	0.0	2.2415395549723884	446.1219512195127	1128.2051282051282	99.73423044464823	25.88470908967429	
1.5816810169322205E12	0.0	2.2415395549723884	446.1219512195127	1183.150183150183	99.73153523957957	25.88470908967429	
1.5816810169517517E12	1.0	2.371380071728504	421.69537136706134	1213.9194139194137	99.73423044464823	25.88470908967429	
1.581681016971283E12	1.0	2.371380071728504	421.69537136706134	1180.952380952381	99.73962086229085	25.88470908967429	
1.5816810169908142E12	1.0	2.371380071728504	421.69537136706134	1313.5531135531135	99.73153523957957	25.88470908967429	
1.5816810170103455E12	1.0	2.371380071728504	421.69537136706134	1458.6080586080584	99.73153523957957	25.88470908967429	
1.5816810170298767E12	1.0	2.371380071728504	421.69537136706134	1424.1758241758241	99.73153523957957	25.88470908967429	
1.581681017049408E12	2.0	2.383150183150183	419.61266523209343	1357.5091575091574	99.72614483694761	25.88470908967429	
1.5816810170689392E12	2.0	2.383150183150183	419.61266523209343	1345.054945054945	99.73692565221864	25.88470908967429	
1.5816810170884705E12	2.0	2.384615384615384	419.35483870967744	1367.032967032967	99.7288400370127	25.88470908967429	
1.5816810171080017E12	2.0	2.384615384615384	419.35483870967744	1386.080586080586	99.72614483694761	25.88470908967429	
1.581681017127533E12	2.0	2.384615384615384	419.35483870967744	1395.6043956043954	99.73153523957957	25.88470908967429	
1.5816810171470642E12	2.0	2.386080586080586	419.09732883021184	1400.0	99.72614483694761	25.88470908967429	
1.5816810171665955E12	2.0	2.386080586080586	419.09732883021184	1404.3956043956043	99.72614483694761	25.88470908967429	
1.5816810171861267E12	2.0	2.386080586080586	419.09732883021184	1406.5934065934066	99.72614483694761	25.88470908967429	
1.581681017205658E12	2.0	2.386080586080586	419.09732883021184	1408.058608058608	99.73153523957957	25.88470908967429	
1.5816810172251892E12	2.0	2.386080586080586	419.09732883021184	1408.7912087912086	99.7288400370127	25.88470908967429	
1.5816810172447205E12	2.0	2.3875457875457875	418.8401350107395	1380.952380952381	99.7288400370127	25.88470908967429	
1.5816810172642517E12	2.0	2.3875457875457875	418.8401350107395	1362.6373626373625	99.73153523957957	25.88470908967429	
1.581681017283783E12	2.0	2.3875457875457875	418.8401350107395	1383.150183150183	99.72614483694761	25.88470908967429	
1.5816810173033142E12	2.0	2.3875457875457875	418.8401350107395	1395.6043956043954	99.72614483694761	25.88470908967429	
1.5816810173228455E12	2.0	2.389010989010989	418.5832566697332	1400.7326007326005	99.7288400370127	25.88470908967429	
1.5816810173423767E12	2.0	2.389010989010989	418.5832566697332	1360.4395604395604	99.73153523957957	25.88470908967429	
1.581681017361908E12	2.0	2.389010989010989	418.5832566697332	1383.8827838827838	99.72614483694761	25.88470908967429	
1.5816810173814392E12	2.0	2.3904761904761904	418.32669322709165	1400.0	99.73153523957957	25.88470908967429	
1.5816810174009705E12	2.0	2.3904761904761904	418.32669322709165	1407.3260073260071	99.72614483694761	25.88470908967429	
1.5816810174205017E12	2.0	2.391941391941392	418.07044410413476	1410.2564102564102	99.72344963938428	25.88470908967429	
1.581681017440033E12	2.0	2.391941391941392	418.07044410413476	1413.9194139194137	99.7288400370127	25.88470908967429	
1.5816810174595642E12	2.0	2.3934065934065933	417.81450872359966	1414.6520146520145	99.7288400370127	25.88470908967429	
1.5816810174790955E12	2.0	2.3934065934065933	417.81450872359966	1412.4542124542124	99.72614483694761	25.88470908967429	
1.5816810174986267E12	2.0	2.3934065934065933	417.81450872359966	1411.7216117216117	99.72614483694761	25.88470908967429	
1.581681017518158E12	2.0	2.3934065934065933	417.81450872359966	1412.4542124542124	99.72614483694761	25.88470908967429	
1.5816810175376892E12	2.0	2.3978021978021977	417.0485792850596	1413.9194139194137	99.72344963938428	25.88470908967429	
1.5816810175572205E12	2.0	2.3934065934065933	417.81450872359966	1421.245421245421	99.72075444432275	25.88470908967429	
1.5816810175767517E12	2.0	2.3948717948717944	417.558886509636	1417.5824175824175	99.72614483694761	25.88470908967429	
1.581681017596283E12	2.0	2.3948717948717944	417.558886509636	1418.3150183150183	99.7288400370127	25.88470908967429	
1.5816810176158142E12	2.0	2.3963369963369963	417.3035768878019	1419.047619047619	99.72344963938428	25.88470908967429	
1.5816810176353455E12	2.0	2.3948717948717944	417.558886509636	1419.7802197802198	99.72075444432275	25.88470908967429	
1.5816810176548767E12	2.0	2.3963369963369963	417.3035768878019	1419.7802197802198	99.72344963938428	25.88470908967429	
1.581681017674408E12	2.0	2.3978021978021977	417.0485792850596	1419.7802197802198	99.72614483694761	25.88470908967429	
1.5816810176939392E12	2.0	2.3978021978021977	417.0485792850596	1422.7106227106226	99.72344963938428	25.88470908967429	
1.5816810177134705E12	2.0	2.3978021978021977	417.0485792850596	1424.9084249084249	99.7288400370127	25.88470908967429	
1.5816810177330017E12	2.0	2.399267399267399	416.793893129771	1425.6410256410256	100.23855625959416	28.973678230517542	
1.581681017752533E12	2.0	2.399267399267399	416.793893129771	1424.1758241758241	100.23855625959416	28.973678230517542	
1.5816810177720642E12	2.0	2.4007326007326006	416.53951785169363	1423.4432234432234	100.23584749120307	28.973678230517542	
1.5816810177915955E12	2.0	2.4007326007326006	416.53951785169363	1426.3736263736262	100.23584749120307	28.973678230517542	
1.5816810178111267E12	2.0	2.4007326007326006	416.53951785169363	1427.106227106227	100.23042996199939	28.973678230517542	
1.581681017830658E12	2.0	2.4007326007326006	416.53951785169363	1431.5018315018315	100.23855625959416	28.973678230517542	
1.5816810178501892E12	2.0	2.4007326007326006	416.53951785169363	1432.9670329670328	100.23855625959416	28.973678230517542	
1.5816810178697205E12	2.0	2.402197802197802	416.28545288197625	1431.5018315018315	100.23313872533816	28.973678230517542	
1.5816810178892517E12	2.0	2.402197802197802	416.28545288197625	1430.7692307692307	100.24126503051134	28.973678230517542	
1.581681017908783E12	2.0	2.402197802197802	416.28545288197625	1430.03663003663	100.23042996199939	28.973678230517542	
1.5816810179283142E12	2.0	2.402197802197802	416.28545288197625	1429.3040293040292	100.23042996199939	28.973678230517542	
1.5816810179478455E12	2.0	2.4007326007326006	416.53951785169363	1429.3040293040292	100.22501244290027	28.973678230517542	
1.5816810179673767E12	2.0	2.402197802197802	416.28545288197625	1429.3040293040292	100.23584749120307	28.973678230517542	
1.581681017986908E12	2.0	2.402197802197802	416.28545288197625	1430.7692307692307	100.23313872533816	28.973678230517542	
1.5816810180064392E12	2.0	2.402197802197802	416.28545288197625	1430.03663003663	100.23855625959416	28.973678230517542	
1.5816810180259705E12	2.0	2.402197802197802	416.28545288197625	1430.03663003663	100.23042996199939	28.973678230517542	
1.5816810180455017E12	2.0	2.402197802197802	416.28545288197625	1430.03663003663	100.23042996199939	28.973678230517542	
1.581681018065033E12	2.0	2.402197802197802	416.28545288197625	1430.7692307692307	100.22501244290027	28.973678230517542	
1.5816810180845642E12	2.0	2.402197802197802	416.28545288197625	1432.2344322344322	100.23313872533816	28.973678230517542	
1.5816810181040955E12	2.0	2.402197802197802	416.28545288197625	1433.6996336996335	100.23313872533816	28.973678230517542	
1.5816810181236267E12	2.0	2.402197802197802	416.28545288197625	1432.2344322344322	100.23042996199939	28.973678230517542	
1.581681018143158E12	2.0	2.4036630036630036	416.03169765315454	1430.7692307692307	100.22772120118675	28.973678230517542	
1.5816810181626892E12	2.0	2.402197802197802	416.28545288197625	1432.9670329670328	100.22501244290027	28.973678230517542	
1.5816810181822205E12	2.0	2.402197802197802	416.28545288197625	1430.7692307692307	100.22772120118675	28.973678230517542	
1.5816810182017517E12	2.0	2.4007326007326006	416.53951785169363	1430.03663003663	100.23042996199939	28.973678230517542	
1.581681018221283E12	2.0	2.402197802197802	416.28545288197625	1429.3040293040292	100.23042996199939	28.973678230517542	
1.5816810182408142E12	2.0	2.4007326007326006	416.53951785169363	1430.7692307692307	100.23042996199939	28.973678230517542	
1.5816810182603455E12	2.0	2.4007326007326006	416.53951785169363	1431.5018315018315	100.23313872533816	28.973678230517542	
1.5816810182798767E12	2.0	2.4007326007326006	416.53951785169363	1431.5018315018315	100.23313872533816	28.973678230517542	
1.581681018299408E12	2.0	2.4007326007326006	416.53951785169363	1430.03663003663	100.22501244290027	28.973678230517542	
1.5816810183189392E12	2.0	2.399267399267399	416.793893129771	1428.5714285714284	100.23313872533816	28.973678230517542	
1.5816810183384705E12	2.0	2.399267399267399	416.793893129771	1424.9084249084249	100.23042996199939	28.973678230517542	
1.5816810183580017E12	2.0	2.3978021978021977	417.0485792850596	1422.7106227106226	100.23042996199939	28.973678230517542	
1.581681018377533E12	2.0	2.3978021978021977	417.0485792850596	1423.4432234432234	100.23313872533816	28.973678230517542	
1.5816810183970642E12	2.0	2.399267399267399	416.793893129771	1421.245421245421	100.23042996199939	28.973678230517542	
1.5816810184165955E12	2.0	2.3978021978021977	417.0485792850596	1417.5824175824175	100.23313872533816	28.973678230517542	
1.5816810184361267E12	2.0	2.3948717948717944	417.558886509636	1418.3150183150183	100.23313872533816	28.973678230517542	
1.581681018455658E12	2.0	2.3948717948717944	417.558886509636	1416.117216117216	100.23313872533816	28.973678230517542	
1.5816810184751892E12	2.0	2.3948717948717944	417.558886509636	1416.117216117216	100.22501244290027	28.973678230517542	
1.5816810184947205E12	2.0	2.3948717948717944	417.558886509636	1416.117216117216	100.22772120118675	28.973678230517542	
1.5816810185142517E12	2.0	2.3934065934065933	417.81450872359966	1415.3846153846152	100.22772120118675	28.973678230517542	
1.581681018533783E12	2.0	2.391941391941392	418.07044410413476	1412.4542124542124	100.23042996199939	28.973678230517542	
1.5816810185533142E12	2.0	2.391941391941392	418.07044410413476	1413.9194139194137	100.22772120118675	28.973678230517542	
1.5816810185728455E12	2.0	2.391941391941392	418.07044410413476	1415.3846153846152	100.23313872533816	28.973678230517542	
1.5816810185923767E12	2.0	2.3904761904761904	418.32669322709165	1415.3846153846152	100.22772120118675	28.973678230517542	
1.581681018611908E12	2.0	2.3904761904761904	418.32669322709165	1413.1868131868132	100.22501244290027	28.973678230517542	
1.5816810186314392E12	2.0	2.389010989010989	418.5832566697332	1411.7216117216117	100.22501244290027	28.973678230517542	
1.5816810186509705E12	2.0	2.3904761904761904	418.32669322709165	1410.989010989011	100.22501244290027	28.973678230517542	
1.5816810186705017E12	2.0	2.389010989010989	418.5832566697332	1410.989010989011	100.23042996199939	28.973678230517542	
1.581681018690033E12	2.0	2.3875457875457875	418.8401350107395	1410.2564102564102	100.23042996199939	28.973678230517542	
1.5816810187095642E12	2.0	2.386080586080586	419.09732883021184	1407.3260073260071	100.23042996199939	28.973678230517542	
1.5816810187290955E12	2.0	2.386080586080586	419.09732883021184	1408.058608058608	100.23449865424575	28.998311618115984	
1.5816810187486267E12	2.0	2.386080586080586	419.09732883021184	1408.058608058608	100.23720752585993	28.998311618115984	
1.581681018768158E12	2.0	2.386080586080586	419.09732883021184	1408.058608058608	100.22908091859635	28.998311618115984	
1.5816810187876892E12	2.0	2.384615384615384	419.35483870967744	1408.058608058608	100.23449865424575	28.998311618115984	
1.5816810188072205E12	2.0	2.384615384615384	419.35483870967744	1404.3956043956043	100.23449865424575	28.998311618115984	
1.5816810188267517E12	2.0	2.383150183150183	419.61266523209343	1402.9304029304028	100.23720752585993	28.998311618115984	
1.581681018846283E12	2.0	2.383150183150183	419.61266523209343	1401.4652014652013	100.23449865424575	28.998311618115984	
1.5816810188658142E12	2.0	2.383150183150183	419.61266523209343	1400.7326007326005	100.22908091859635	28.998311618115984	
1.5816810188853455E12	2.0	2.383150183150183	419.61266523209343	1400.7326007326005	100.23449865424575	28.998311618115984	
1.5816810189048767E12	2.0	2.3816849816849817	419.8708089818517	1400.7326007326005	100.22366319305232	28.998311618115984	
1.581681018924408E12	2.0	2.3816849816849817	419.8708089818517	1397.069597069597	100.23178978515787	28.998311618115984	
1.5816810189439392E12	2.0	2.3816849816849817	419.8708089818517	1396.3369963369962	100.23178978515787	28.998311618115984	
1.5816810189634705E12	2.0	2.3816849816849817	419.8708089818517	1394.8717948717947	100.22908091859635	28.998311618115984	
1.5816810189830017E12	2.0	2.3816849816849817	419.8708089818517	1394.139194139194	100.22908091859635	28.998311618115984	
1.581681019002533E12	2.0	2.3816849816849817	419.8708089818517	1394.139194139194	100.22908091859635	28.998311618115984	
1.5816810190220642E12	2.0	2.3816849816849817	419.8708089818517	1393.4065934065934	100.23449865424575	28.998311618115984	
1.5816810190415955E12	2.0	2.383150183150183	419.61266523209343	1394.139194139194	100.23720752585993	28.998311618115984	
1.5816810190611267E12	2.0	2.38021978021978	420.129270544783	1396.3369963369962	100.23449865424575	28.998311618115984	
1.581681019080658E12	2.0	2.38021978021978	420.129270544783	1397.8021978021977	100.23178978515787	28.998311618115984	
1.5816810191001892E12	2.0	2.38021978021978	420.129270544783	1398.5347985347985	100.22908091859635	28.998311618115984	
1.5816810191197205E12	2.0	2.3787545787545787	420.38805050816137	1398.5347985347985	100.23449865424575	28.998311618115984	
1.5816810191392517E12	2.0	2.3787545787545787	420.38805050816137	1395.6043956043954	100.23449865424575	28.998311618115984	
1.581681019158783E12	2.0	2.375824175824176	420.90656799259943	1394.139194139194	100.23720752585993	28.998311618115984	
1.5816810191783142E12	2.0	2.3772893772893777	420.64714946070876	1389.7435897435896	100.23449865424575	28.998311618115984	
1.5816810191978455E12	2.0	2.374358974358975	421.16630669546436	1391.2087912087911	100.23720752585993	28.998311618115984	
1.5816810192173767E12	2.0	2.372893772893773	421.4263661623958	1530.4029304029302	100.23178978515787	28.998311618115984	
1.581681019236908E12	2.0	2.372893772893773	421.4263661623958	1594.139194139194	100.22908091859635	28.998311618115984	
1.5816810192564392E12	2.0	2.372893772893773	421.4263661623958	1625.6410256410256	100.23449865424575	28.998311618115984	
1.5816810192759705E12	2.0	2.36996336996337	421.94744976816077	1642.4908424908424	100.23449865424575	28.998311618115984	
1.5816810192955017E12	2.0	2.36996336996337	421.94744976816077	1646.153846153846	100.23449865424575	28.998311618115984	
1.581681019315033E12	2.0	2.372893772893773	421.4263661623958	1648.3516483516482	100.23991640000048	28.998311618115984	
1.5816810193345642E12	2.0	2.374358974358975	421.16630669546436	1654.212454212454	100.23178978515787	28.998311618115984	
1.5816810193540955E12	2.0	2.372893772893773	421.4263661623958	1660.07326007326	100.23449865424575	28.998311618115984	
1.5816810193736267E12	2.0	2.372893772893773	421.4263661623958	1660.07326007326	100.23449865424575	28.998311618115984	
1.581681019393158E12	2.0	2.372893772893773	421.4263661623958	1660.07326007326	100.23720752585993	28.998311618115984	
1.5816810194126892E12	2.0	2.3714285714285714	421.6867469879518	1660.07326007326	100.22366319305232	28.998311618115984	
1.5816810194322205E12	2.0	2.372893772893773	421.4263661623958	1659.3406593406592	100.22908091859635	28.998311618115984	
1.5816810194517517E12	2.0	2.3714285714285714	421.6867469879518	1659.3406593406592	100.23178978515787	28.998311618115984	
1.581681019471283E12	2.0	2.3714285714285714	421.6867469879518	1659.3406593406592	100.22908091859635	28.998311618115984	
1.5816810194908142E12	2.0	2.3714285714285714	421.6867469879518	1658.6080586080584	100.23178978515787	28.998311618115984	
1.5816810195103455E12	2.0	2.372893772893773	421.4263661623958	1658.6080586080584	100.22908091859635	28.998311618115984	
1.5816810195298767E12	2.0	2.36996336996337	421.94744976816077	1659.3406593406592	100.23178978515787	28.998311618115984	
1.581681019549408E12	2.0	2.36996336996337	421.94744976816077	1655.6776556776556	100.22908091859635	28.998311618115984	
1.5816810195689392E12	2.0	2.36996336996337	421.94744976816077	1654.212454212454	100.22908091859635	28.998311618115984	
1.5816810195884705E12	2.0	2.36996336996337	421.94744976816077	1653.4798534798533	100.22366319305232	28.998311618115984	
1.5816810196080017E12	2.0	2.36996336996337	421.94744976816077	1652.7472527472526	100.22637205456115	28.998311618115984	
1.581681019627533E12	2.0	2.36996336996337	421.94744976816077	1652.7472527472526	100.23449865424575	28.998311618115984	
1.5816810196470642E12	2.0	2.36996336996337	421.94744976816077	1652.0146520146518	100.23178978515787	28.998311618115984	
1.5816810196665955E12	2.0	2.368498168498168	422.20847510052585	1652.7472527472526	100.22908091859635	28.998311618115984	
1.5816810196861267E12	2.0	2.368498168498168	422.20847510052585	1653.4798534798533	100.22908091859635	28.998311618115984	
1.581681019705658E12	2.0	2.368498168498168	422.20847510052585	1654.212454212454	100.23449865424575	28.998311618115984	
1.5816810197251892E12	2.0	2.368498168498168	422.20847510052585	1654.9450549450548	100.23693990169167	29.01309165416751	
1.5816810197447205E12	2.0	2.368498168498168	422.20847510052585	1654.9450549450548	100.23693990169167	29.01309165416751	
1.5816810197642517E12	2.0	2.368498168498168	422.20847510052585	1654.9450549450548	100.22610418063616	29.01309165416751	
1.581681019783783E12	2.0	2.367032967032967	422.4698235840297	1654.9450549450548	100.23152203611102	29.01309165416751	
1.5816810198033142E12	2.0	2.367032967032967	422.4698235840297	1652.0146520146518	100.23152203611102	29.01309165416751	
1.5816810198228455E12	2.0	2.365567765567765	422.73149581913907	1649.8168498168498	100.22881310711035	29.01309165416751	
1.5816810198423767E12	2.0	2.367032967032967	422.4698235840297	1649.084249084249	100.23693990169167	29.01309165416751	
1.581681019861908E12	2.0	2.367032967032967	422.4698235840297	1649.084249084249	100.23693990169167	29.01309165416751	
1.5816810198814392E12	2.0	2.365567765567765	422.73149581913907	1649.084249084249	100.23423096763813	29.01309165416751	
1.5816810199009705E12	2.0	2.367032967032967	422.4698235840297	1648.3516483516482	100.23152203611102	29.01309165416751	
1.5816810199205017E12	2.0	2.365567765567765	422.73149581913907	1648.3516483516482	100.23152203611102	29.01309165416751	
1.581681019940033E12	2.0	2.364102564102564	422.99349240780913	1648.3516483516482	100.23152203611102	29.01309165416751	
1.5816810199595642E12	2.0	2.365567765567765	422.73149581913907	1644.6886446886447	100.23152203611102	29.01309165416751	
1.5816810199790955E12	2.0	2.364102564102564	422.99349240780913	1646.153846153846	100.23693990169167	29.01309165416751	
1.5816810199986267E12	2.0	2.364102564102564	422.99349240780913	1643.2234432234432	100.23423096763813	29.01309165416751	
1.581681020018158E12	2.0	2.3626373626373627	423.25581395348837	1642.4908424908424	100.23152203611102	29.01309165416751	
1.5816810200376892E12	2.0	2.3626373626373627	423.25581395348837	1643.2234432234432	100.23423096763813	29.01309165416751	
1.5816810200572205E12	2.0	2.3626373626373627	423.25581395348837	1643.2234432234432	100.23423096763813	29.01309165416751	
1.5816810200767517E12	2.0	2.3626373626373627	423.25581395348837	1643.956043956044	100.23152203611102	29.01309165416751	
1.581681020096283E12	2.0	2.3597069597069598	423.78143433716235	1643.2234432234432	100.22610418063616	29.01309165416751	
1.5816810201158142E12	2.0	2.361172161172161	423.51846106112316	1639.5604395604394	100.23152203611102	29.01309165416751	
1.5816810201353455E12	2.0	2.361172161172161	423.51846106112316	1638.095238095238	100.2233952566884	29.01309165416751	
1.5816810201548767E12	2.0	2.3597069597069598	423.78143433716235	1638.095238095238	100.23152203611102	29.01309165416751	
1.581681020174408E12	2.0	2.3597069597069598	423.78143433716235	1636.6300366300366	100.23693990169167	29.01309165416751	
1.5816810201939392E12	2.0	2.3597069597069598	423.78143433716235	1635.8974358974358	100.22881310711035	29.01309165416751	
1.5816810202134705E12	2.0	2.3582417582417583	424.04473438956194	1635.8974358974358	100.23423096763813	29.01309165416751	
1.5816810202330017E12	2.0	2.3582417582417583	424.04473438956194	1632.9670329670328	100.22881310711035	29.01309165416751	
1.581681020252533E12	2.0	2.356776556776557	424.30836182778984	1630.7692307692307	100.23152203611102	29.01309165416751	
1.5816810202720642E12	2.0	2.356776556776557	424.30836182778984	1632.2344322344322	100.23152203611102	29.01309165416751	
1.5816810202915955E12	2.0	2.355311355311355	424.5723172628305	1632.2344322344322	100.23423096763813	29.01309165416751	
1.5816810203111267E12	2.0	2.355311355311355	424.5723172628305	1629.3040293040292	100.22881310711035	29.01309165416751	
1.581681020330658E12	2.0	2.353846153846154	424.83660130718954	1627.8388278388277	100.23152203611102	29.01309165416751	
1.5816810203501892E12	2.0	2.353846153846154	424.83660130718954	1626.3736263736262	100.23693990169167	29.01309165416751	
1.5816810203697205E12	2.0	2.352380952380952	425.1012145748988	1624.9084249084249	100.23152203611102	29.01309165416751	
1.5816810203892517E12	2.0	2.352380952380952	425.1012145748988	1621.245421245421	100.23152203611102	29.01309165416751	
1.581681020408783E12	2.0	2.350915750915751	425.3661576815207	1619.7802197802196	100.22881310711035	29.01309165416751	
1.5816810204283142E12	2.0	2.3494505494505495	425.6314312441534	1620.5128205128203	100.22610418063616	29.01309165416751	
1.5816810204478455E12	2.0	2.3494505494505495	425.6314312441534	1618.3150183150183	100.23152203611102	29.01309165416751	
1.5816810204673767E12	2.0	2.3494505494505495	425.6314312441534	1616.117216117216	100.23152203611102	29.01309165416751	
1.581681020486908E12	2.0	2.3479853479853485	425.8970358814352	1616.117216117216	100.22610418063616	29.01309165416751	
1.5816810205064392E12	2.0	2.3465201465201466	426.1629722135498	1614.6520146520145	100.23152203611102	29.01309165416751	
1.5816810205259705E12	2.0	2.3465201465201466	426.1629722135498	1610.2564102564102	100.23152203611102	29.01309165416751	
1.5816810205455017E12	2.0	2.3465201465201466	426.1629722135498	1608.058608058608	100.23152203611102	29.01309165416751	
1.581681020565033E12	2.0	2.3465201465201466	426.1629722135498	1607.3260073260071	100.23152203611102	29.01309165416751	
1.5816810205845642E12	2.0	2.3465201465201466	426.1629722135498	1606.5934065934066	100.22610418063616	29.01309165416751	
1.5816810206040955E12	2.0	2.3465201465201466	426.1629722135498	1607.3260073260071	100.22610418063616	29.01309165416751	
1.5816810206236267E12	2.0	2.3465201465201466	426.1629722135498	1607.3260073260071	100.23152203611102	29.01309165416751	
1.581681020643158E12	2.0	2.3465201465201466	426.1629722135498	1607.3260073260071	100.23152203611102	29.01309165416751	
1.5816810206626892E12	2.0	2.3450549450549456	426.42924086223053	1607.3260073260071	100.22881310711035	29.01309165416751	
1.5816810206822205E12	2.0	2.3450549450549456	426.42924086223053	1609.5238095238094	100.23152203611102	29.01309165416751	
1.5816810207017517E12	2.0	2.3435897435897437	426.69584245076584	1609.5238095238094	100.23152203611102	29.01309165416751	
1.581681020721283E12	2.0	2.342124542124542	426.96277760400375	1607.3260073260071	100.23721807055921	29.04757841514074	
1.5816810207408142E12	2.0	2.3391941391941393	427.49765111180704	1604.3956043956043	100.2426362393161	29.04757841514074	
1.5816810207603455E12	2.0	2.337728937728938	427.765590723911	1601.4652014652013	100.23450898997085	29.04757841514074	
1.5816810207798767E12	2.0	2.337728937728938	427.765590723911	1597.069597069597	100.23450898997085	29.04757841514074	
1.581681020799408E12	2.0	2.337728937728938	427.765590723911	1594.8717948717947	100.23450898997085	29.04757841514074	
1.5816810208189392E12	2.0	2.3362637362637364	428.0338664158043	1593.4065934065934	100.23450898997085	29.04757841514074	
1.5816810208384705E12	2.0	2.3362637362637364	428.0338664158043	1591.9413919413919	100.2317999119092	29.04757841514074	
1.5816810208580017E12	2.0	2.3362637362637364	428.0338664158043	1591.2087912087911	100.23450898997085	29.04757841514074	
1.581681020877533E12	2.0	2.3362637362637364	428.0338664158043	1591.2087912087911	100.23721807055921	29.04757841514074	
1.5816810208970642E12	2.0	2.334798534798535	428.30247882020706	1591.2087912087911	100.2317999119092	29.04757841514074	
1.5816810209165955E12	2.0	2.3333333333333335	428.57142857142856	1587.5457875457873	100.23450898997085	29.04757841514074	
1.5816810209361267E12	2.0	2.3333333333333335	428.57142857142856	1587.5457875457873	100.23450898997085	29.04757841514074	
1.581681020955658E12	2.0	2.3333333333333335	428.57142857142856	1587.5457875457873	100.22909083637433	29.04757841514074	
1.5816810209751892E12	2.0	2.331868131868132	428.84071630537227	1586.8131868131868	100.23992715367427	29.04757841514074	
1.5816810209947205E12	2.0	2.331868131868132	428.84071630537227	1583.8827838827838	100.23992715367427	29.04757841514074	
1.5816810210142517E12	2.0	2.331868131868132	428.84071630537227	1581.6849816849815	100.23450898997085	29.04757841514074	
1.581681021033783E12	2.0	2.3304029304029306	429.110342659541	1580.9523809523807	100.2317999119092	29.04757841514074	
1.5816810210533142E12	2.0	2.328937728937729	429.3803082730418	1579.4871794871794	100.2317999119092	29.04757841514074	
1.5816810210728455E12	2.0	2.3274725274725276	429.65061378659107	1575.8241758241757	100.23721807055921	29.04757841514074	
1.5816810210923767E12	2.0	2.326007326007326	429.92125984251965	1576.5567765567764	100.2317999119092	29.04757841514074	
1.581681021111908E12	2.0	2.3245421245421247	430.19224708477776	1572.8937728937728	100.2317999119092	29.04757841514074	
1.5816810211314392E12	2.0	2.323076923076923	430.4635761589404	1569.9633699633698	100.23721807055921	29.04757841514074	
1.5816810211509705E12	2.0	2.323076923076923	430.4635761589404	1565.5677655677655	100.2317999119092	29.04757841514074	
1.5816810211705017E12	2.0	2.321611721611722	430.735247712212	1563.3699633699632	100.23721807055921	29.04757841514074	
1.581681021190033E12	2.0	2.3201465201465203	431.00726239343226	1564.102564102564	100.23721807055921	29.04757841514074	
1.5816810212095642E12	2.0	2.3201465201465203	431.00726239343226	1561.1721611721612	100.23721807055921	29.04757841514074	
1.5816810212290955E12	2.0	2.3172161172161174	431.55232374328165	1559.7069597069597	100.23721807055921	29.04757841514074	
1.5816810212486267E12	2.0	2.315750915750916	431.82537171781075	1555.311355311355	100.23450898997085	29.04757841514074	
1.581681021268158E12	2.0	2.3142857142857145	432.09876543209873	1554.5787545787546	100.23450898997085	29.04757841514074	
1.5816810212876892E12	2.0	2.311355311355311	432.6465927099842	1550.9157509157508	100.23450898997085	29.04757841514074	
1.5816810213072205E12	2.0	2.311355311355311	432.6465927099842	1545.054945054945	100.2317999119092	29.04757841514074	
1.5816810213267517E12	2.0	2.311355311355311	432.6465927099842	1542.1245421245421	100.2317999119092	29.04757841514074	
1.581681021346283E12	2.0	2.3084249084249087	433.19581085369725	1540.6593406593406	100.2317999119092	29.04757841514074	
1.5816810213658142E12	2.0	2.3084249084249087	433.19581085369725	1538.4615384615383	100.23721807055921	29.04757841514074	
1.5816810213853455E12	2.0	2.3069597069597068	433.47094315655767	1536.9963369963368	100.23721807055921	29.04757841514074	
1.5816810214048767E12	2.0	2.304029304029304	434.0222575516693	1535.5311355311355	100.2317999119092	29.04757841514074	
1.581681021424408E12	2.0	2.3054945054945053	433.7464251668256	1534.065934065934	100.23721807055921	29.04757841514074	
1.5816810214439392E12	2.0	2.304029304029304	434.0222575516693	1531.135531135531	100.2317999119092	29.04757841514074	
1.5816810214634705E12	2.0	2.304029304029304	434.0222575516693	1531.135531135531	100.2317999119092	29.04757841514074	
1.5816810214830017E12	2.0	2.304029304029304	434.0222575516693	1531.135531135531	100.2317999119092	29.04757841514074	
1.581681021502533E12	2.0	2.304029304029304	434.0222575516693	1531.135531135531	100.23721807055921	29.04757841514074	
1.5816810215220642E12	2.0	2.3025641025641024	434.2984409799555	1531.135531135531	100.2317999119092	29.04757841514074	
1.5816810215415955E12	2.0	2.301098901098901	434.5749761222541	1528.2051282051282	100.2317999119092	29.04757841514074	
1.5816810215611267E12	2.0	2.299633699633699	434.8518636508443	1526.007326007326	100.23450898997085	29.04757841514074	
1.581681021580658E12	2.0	2.301098901098901	434.5749761222541	1521.6117216117216	100.2317999119092	29.04757841514074	
1.5816810216001892E12	2.0	2.298168498168498	435.1291042397195	1522.3443223443223	100.23721807055921	29.04757841514074	
1.5816810216197205E12	2.0	2.2967032967032965	435.40669856459334	1520.8791208791208	100.22638176336615	29.04757841514074	
1.5816810216392517E12	2.0	2.295238095238095	435.6846473029046	1517.9487179487178	100.2317999119092	29.04757841514074	
1.581681021658783E12	2.0	2.2967032967032965	435.40669856459334	1515.7509157509157	100.23721807055921	29.04757841514074	
1.5816810216783142E12	2.0	2.295238095238095	435.6846473029046	1515.018315018315	100.23450898997085	29.04757841514074	
1.5816810216978455E12	2.0	2.2937728937728936	435.9629511338231	1514.2857142857142	100.22909083637433	29.04757841514074	
1.5816810217173767E12	2.0	2.2937728937728936	435.9629511338231	1510.6227106227104	100.23315918775563	29.072211824567056	
1.581681021736908E12	2.0	2.295238095238095	435.6846473029046	1509.1575091575091	100.23857755790823	29.072211824567056	
1.5816810217564392E12	2.0	2.2937728937728936	435.9629511338231	1510.6227106227104	100.23315918775563	29.072211824567056	
1.5816810217759705E12	2.0	2.295238095238095	435.6846473029046	1509.1575091575091	100.23857755790823	29.072211824567056	
1.5816810217955017E12	2.0	2.295238095238095	435.6846473029046	1511.3553113553112	100.23586837156847	29.072211824567056	
1.581681021815033E12	2.0	2.2937728937728936	435.9629511338231	1512.8205128205127	100.24128674677489	29.072211824567056	
1.5816810218345642E12	2.0	2.2937728937728936	435.9629511338231	1509.89010989011	100.23315918775563	29.072211824567056	
1.5816810218540955E12	2.0	2.292307692307692	436.2416107382551	1508.4249084249084	100.23045000646972	29.072211824567056	
1.5816810218736267E12	2.0	2.295238095238095	435.6846473029046	1509.89010989011	100.23315918775563	29.072211824567056	
1.581681021893158E12	2.0	2.2937728937728936	435.9629511338231	1512.087912087912	100.23045000646972	29.072211824567056	
1.5816810219126892E12	2.0	2.2937728937728936	435.9629511338231	1509.1575091575091	100.23586837156847	29.072211824567056	
1.5816810219322205E12	2.0	2.292307692307692	436.2416107382551	1507.6923076923076	100.23586837156847	29.072211824567056	
1.5816810219517517E12	2.0	2.292307692307692	436.2416107382551	1509.89010989011	100.23315918775563	29.072211824567056	
1.581681021971283E12	2.0	2.292307692307692	436.2416107382551	1510.6227106227104	100.23857755790823	29.072211824567056	
1.5816810219908142E12	2.0	2.2908424908424907	436.52062679884875	1509.1575091575091	100.23045000646972	29.072211824567056	
1.5816810220103455E12	2.0	2.2908424908424907	436.52062679884875	1506.9597069597069	100.23857755790823	29.072211824567056	
1.5816810220298767E12	2.0	2.2908424908424907	436.52062679884875	1506.227106227106	100.23045000646972	29.072211824567056	
1.581681022049408E12	2.0	2.2908424908424907	436.52062679884875	1503.2967032967033	100.23045000646972	29.072211824567056	
1.5816810220689392E12	2.0	2.2893772893772897	436.8	1504.0293040293038	100.23315918775563	29.072211824567056	
1.5816810220884705E12	2.0	2.2893772893772897	436.8	1504.0293040293038	100.22503165147866	29.072211824567056	
1.5816810221080017E12	2.0	2.2893772893772897	436.8	1503.2967032967033	100.23315918775563	29.072211824567056	
1.581681022127533E12	2.0	2.2879120879120878	437.07973102785786	1499.6336996336995	100.23586837156847	29.072211824567056	
1.5816810221470642E12	2.0	2.2879120879120878	437.07973102785786	1497.4358974358972	100.23315918775563	29.072211824567056	
1.5816810221665955E12	2.0	2.2879120879120878	437.07973102785786	1497.4358974358972	100.23045000646972	29.072211824567056	
1.5816810221861267E12	2.0	2.2864468864468863	437.35982057033004	1496.7032967032967	100.22503165147866	29.072211824567056	
1.581681022205658E12	2.0	2.284981684981685	437.64026931708884	1498.168498168498	100.23315918775563	29.072211824567056	
1.5816810222251892E12	2.0	2.284981684981685	437.64026931708884	1495.970695970696	100.22503165147866	29.072211824567056	
1.5816810222447205E12	2.0	2.284981684981685	437.64026931708884	1494.5054945054944	100.23045000646972	29.072211824567056	
1.5816810222642517E12	2.0	2.283516483516483	437.92107795957656	1493.7728937728937	100.23045000646972	29.072211824567056	
1.581681022283783E12	2.0	2.283516483516483	437.92107795957656	1490.10989010989	100.23586837156847	29.072211824567056	
1.5816810223033142E12	2.0	2.282051282051282	438.2022471910113	1490.8424908424906	100.23315918775563	29.072211824567056	
1.5816810223228455E12	2.0	2.282051282051282	438.2022471910113	1488.6446886446886	100.22774082771073	29.072211824567056	
1.5816810223423767E12	2.0	2.279120879120879	438.76567020250724	1486.4468864468863	100.23045000646972	29.072211824567056	
1.581681022361908E12	2.0	2.279120879120879	438.76567020250724	1483.5164835164835	100.22774082771073	29.072211824567056	
1.5816810223814392E12	2.0	2.2776556776556776	439.04792537793503	1482.051282051282	100.23315918775563	29.072211824567056	
1.5816810224009705E12	2.0	2.2761904761904765	439.3305439330544	1480.5860805860805	100.23045000646972	29.072211824567056	
1.5816810224205017E12	2.0	2.2747252747252746	439.61352657004835	1474.7252747252746	100.22774082771073	29.072211824567056	
1.581681022440033E12	2.0	2.2747252747252746	439.61352657004835	1476.1904761904761	100.23315918775563	29.072211824567056	
1.5816810224595642E12	2.0	2.273260073260073	439.8968739929101	1476.1904761904761	100.23045000646972	29.072211824567056	
1.5816810224790955E12	2.0	2.273260073260073	439.8968739929101	1473.260073260073	100.23045000646972	29.072211824567056	
1.5816810224986267E12	2.0	2.2717948717948717	440.1805869074492	1471.7948717948716	100.23045000646972	29.072211824567056	
1.581681022518158E12	2.0	2.2703296703296703	440.4646660212972	1470.3296703296703	100.23045000646972	29.072211824567056	
1.5816810225376892E12	2.0	2.2703296703296703	440.4646660212972	1466.6666666666665	100.23045000646972	29.072211824567056	
1.5816810225572205E12	2.0	2.2673992673992673	441.03392568659126	1463.003663003663	100.22774082771073	29.072211824567056	
1.5816810225767517E12	2.0	2.2673992673992673	441.03392568659126	1460.07326007326	100.23315918775563	29.072211824567056	
1.581681022596283E12	2.0	2.2673992673992673	441.03392568659126	1460.07326007326	100.22232247777352	29.072211824567056	
1.5816810226158142E12	2.0	2.265934065934066	441.31910766246364	1460.07326007326	100.23586837156847	29.072211824567056	
1.5816810226353455E12	2.0	2.2644688644688644	441.60465868650925	1459.3406593406592	100.23315918775563	29.072211824567056	
1.5816810226548767E12	2.0	2.263003663003663	441.89057947555847	1455.6776556776556	100.23045000646972	29.072211824567056	
1.581681022674408E12	2.0	2.263003663003663	441.89057947555847	1456.4102564102564	100.22774082771073	29.072211824567056	
1.5816810226939392E12	2.0	2.263003663003663	441.89057947555847	1456.4102564102564	100.22774082771073	29.072211824567056	
1.5816810227134705E12	2.0	2.2615384615384615	442.17687074829934	1453.4798534798533	100.22936810034182	29.082065190374852	
1.5816810227330017E12	2.0	2.2615384615384615	442.17687074829934	1452.014652014652	100.22936810034182	29.082065190374852	
1.581681022752533E12	2.0	2.2615384615384615	442.17687074829934	1451.2820512820513	100.22936810034182	29.082065190374852	
1.5816810227720642E12	2.0	2.26007326007326	442.46353322528364	1451.2820512820513	100.23207732241215	29.082065190374852	
1.5816810227915955E12	2.0	2.2586080586080586	442.75056762893286	1449.8168498168498	100.23478654700948	29.082065190374852	
1.5816810228111267E12	2.0	2.2586080586080586	442.75056762893286	1446.8864468864467	100.23207732241215	29.082065190374852	
1.581681022830658E12	2.0	2.257142857142857	443.0379746835443	1444.6886446886447	100.22936810034182	29.082065190374852	
1.5816810228501892E12	2.0	2.2556776556776557	443.32575511529717	1444.6886446886447	100.23207732241215	29.082065190374852	
1.5816810228697205E12	2.0	2.2542124542124538	443.6139096522587	1442.4908424908424	100.22936810034182	29.082065190374852	
1.5816810228892517E12	2.0	2.2512820512820513	444.19134396355355	1439.5604395604394	100.23207732241215	29.082065190374852	
1.581681022908783E12	2.0	2.2498168498168503	444.48062520351675	1437.3626373626373	100.23207732241215	29.082065190374852	
1.5816810229283142E12	2.0	2.2498168498168503	444.48062520351675	1433.6996336996335	100.23207732241215	29.082065190374852	
1.5816810229478455E12	2.0	2.2468864468864473	445.0603195304858	1430.7692307692307	100.22665888079848	29.082065190374852	
1.5816810229673767E12	2.0	2.243956043956044	445.64152791380997	1426.3736263736262	100.23478654700948	29.082065190374852	
1.581681022986908E12	2.0	2.243956043956044	445.64152791380997	1423.4432234432234	100.23207732241215	29.082065190374852	
1.5816810230064392E12	2.0	2.2424908424908425	445.9327017314603	1421.9780219780218	100.23478654700948	29.082065190374852	
1.5816810230259705E12	2.0	2.241025641025641	446.22425629290615	1420.5128205128203	100.23749577413382	29.082065190374852	
1.5816810230455017E12	2.0	2.2395604395604396	446.5161923454367	1416.8498168498168	100.22665888079848	29.082065190374852	
1.581681023065033E12	2.0	2.2395604395604396	446.5161923454367	1417.5824175824175	100.23207732241215	29.082065190374852	
1.5816810230845642E12	2.0	2.2380952380952377	446.8085106382979	1416.8498168498168	100.22936810034182	29.082065190374852	
1.5816810231040955E12	2.0	2.236630036630037	447.10121192269895	1413.9194139194137	100.23207732241215	29.082065190374852	
1.5816810231236267E12	2.0	2.235164835164835	447.39429695181906	1411.7216117216117	100.23207732241215	29.082065190374852	
1.581681023143158E12	2.0	2.2336996336996338	447.68776648081337	1407.3260073260071	100.23478654700948	29.082065190374852	
1.5816810231626892E12	2.0	2.2322344322344323	447.9816212668198	1408.058608058608	100.22936810034182	29.082065190374852	
1.5816810231822205E12	2.0	2.2322344322344323	447.9816212668198	1405.128205128205	100.23478654700948	29.082065190374852	
1.5816810232017517E12	2.0	2.230769230769231	448.2758620689655	1404.3956043956043	100.22665888079848	29.082065190374852	
1.581681023221283E12	2.0	2.2293040293040294	448.5704896483733	1402.9304029304028	100.23478654700948	29.082065190374852	
1.5816810232408142E12	2.0	2.2293040293040294	448.5704896483733	1398.5347985347985	100.22665888079848	29.082065190374852	
1.5816810232603455E12	2.0	2.2278388278388275	448.86550476816836	1397.069597069597	100.23207732241215	29.082065190374852	
1.5816810232798767E12	2.0	2.2278388278388275	448.86550476816836	1399.2673992673992	100.22936810034182	29.082065190374852	
1.581681023299408E12	2.0	2.2278388278388275	448.86550476816836	1399.2673992673992	100.23207732241215	29.082065190374852	
1.5816810233189392E12	2.0	2.2278388278388275	448.86550476816836	1400.0	100.22936810034182	29.082065190374852	
1.5816810233384705E12	2.0	2.2263736263736265	449.16090819348466	1396.3369963369962	100.22936810034182	29.082065190374852	
1.5816810233580017E12	2.0	2.2263736263736265	449.16090819348466	1395.6043956043954	100.23478654700948	29.082065190374852	
1.581681023377533E12	2.0	2.224908424908425	449.45670069147184	1394.8717948717947	100.22936810034182	29.082065190374852	
1.5816810233970642E12	2.0	2.2234432234432235	449.75288303130145	1394.139194139194	100.22936810034182	29.082065190374852	
1.5816810234165955E12	2.0	2.224908424908425	449.45670069147184	1390.4761904761904	100.22936810034182	29.082065190374852	
1.5816810234361267E12	2.0	2.2234432234432235	449.75288303130145	1391.2087912087911	100.23749577413382	29.082065190374852	
1.581681023455658E12	2.0	2.2234432234432235	449.75288303130145	1389.0109890109889	100.22665888079848	29.082065190374852	
1.5816810234751892E12	2.0	2.2234432234432235	449.75288303130145	1388.278388278388	100.22936810034182	29.082065190374852	
1.5816810234947205E12	2.0	2.2234432234432235	449.75288303130145	1387.5457875457876	100.22665888079848	29.082065190374852	
1.5816810235142517E12	2.0	2.2234432234432235	449.75288303130145	1386.8131868131868	100.22936810034182	29.082065190374852	
1.581681023533783E12	2.0	2.2234432234432235	449.75288303130145	1386.8131868131868	100.22936810034182	29.082065190374852	
1.5816810235533142E12	2.0	2.2234432234432235	449.75288303130145	1386.080586080586	100.22394966378214	29.082065190374852	
1.5816810235728455E12	2.0	2.2234432234432235	449.75288303130145	1386.8131868131868	100.23478654700948	29.082065190374852	
1.5816810235923767E12	2.0	2.2234432234432235	449.75288303130145	1386.8131868131868	100.22936810034182	29.082065190374852	
1.581681023611908E12	2.0	2.2234432234432235	449.75288303130145	1386.8131868131868	100.22936810034182	29.082065190374852	
1.5816810236314392E12	2.0	2.2234432234432235	449.75288303130145	1386.8131868131868	100.23478654700948	29.082065190374852	
1.5816810236509705E12	2.0	2.2234432234432235	449.75288303130145	1386.080586080586	100.22665888079848	29.082065190374852	
1.5816810236705017E12	2.0	2.2234432234432235	449.75288303130145	1386.080586080586	100.22394966378214	29.082065190374852	
1.581681023690033E12	2.0	2.221978021978022	450.0494559841741	1386.080586080586	100.22936810034182	29.082065190374852	
1.5816810237095642E12	2.0	2.2205128205128206	450.3464203233256	1388.278388278388	100.23099538365652	29.091918557346798	
1.5816810237290955E12	2.0	2.2205128205128206	450.3464203233256	1386.8131868131868	100.23641391694731	29.091918557346798	
1.5816810237486267E12	2.0	2.2205128205128206	450.3464203233256	1386.080586080586	100.2337046490384	29.091918557346798	
1.581681023768158E12	2.0	2.2205128205128206	450.3464203233256	1385.3479853479853	100.2337046490384	29.091918557346798	
1.5816810237876892E12	2.0	2.2205128205128206	450.3464203233256	1385.3479853479853	100.2337046490384	29.091918557346798	
1.5816810238072205E12	2.0	2.2205128205128206	450.3464203233256	1385.3479853479853	100.23099538365652	29.091918557346798	
1.5816810238267517E12	2.0	2.2205128205128206	450.3464203233256	1385.3479853479853	100.22828612080174	29.091918557346798	
1.581681023846283E12	2.0	2.2205128205128206	450.3464203233256	1385.3479853479853	100.22828612080174	29.091918557346798	
1.5816810238658142E12	2.0	2.219047619047619	450.6437768240343	1385.3479853479853	100.23099538365652	29.091918557346798	
1.5816810238853455E12	2.0	2.2205128205128206	450.3464203233256	1384.6153846153845	100.22828612080174	29.091918557346798	
1.5816810239048767E12	2.0	2.2205128205128206	450.3464203233256	1384.6153846153845	100.22828612080174	29.091918557346798	
1.581681023924408E12	2.0	2.219047619047619	450.6437768240343	1384.6153846153845	100.22828612080174	29.091918557346798	
1.5816810239439392E12	2.0	2.219047619047619	450.6437768240343	1384.6153846153845	100.22828612080174	29.091918557346798	
1.5816810239634705E12	2.0	2.219047619047619	450.6437768240343	1383.8827838827838	100.23099538365652	29.091918557346798	
1.5816810239830017E12	2.0	2.219047619047619	450.6437768240343	1383.8827838827838	100.22828612080174	29.091918557346798	
1.581681024002533E12	2.0	2.2205128205128206	450.3464203233256	1383.8827838827838	100.22557686047405	29.091918557346798	
1.5816810240220642E12	2.0	2.2205128205128206	450.3464203233256	1384.6153846153845	100.23099538365652	29.091918557346798	
1.5816810240415955E12	2.0	2.221978021978022	450.0494559841741	1385.3479853479853	100.22828612080174	29.091918557346798	
1.5816810240611267E12	2.0	2.2234432234432235	449.75288303130145	1388.278388278388	100.22828612080174	29.091918557346798	
1.581681024080658E12	2.0	2.224908424908425	449.45670069147184	1387.5457875457876	100.2337046490384	29.091918557346798	
1.5816810241001892E12	2.0	2.2263736263736265	449.16090819348466	1389.7435897435896	100.22557686047405	29.091918557346798	
1.5816810241197205E12	2.0	2.2278388278388275	448.86550476816836	1391.9413919413919	100.22828612080174	29.091918557346798	
1.5816810241392517E12	2.0	2.2293040293040294	448.5704896483733	1395.6043956043954	100.22557686047405	29.091918557346798	
1.581681024158783E12	2.0	2.230769230769231	448.2758620689655	1395.6043956043954	100.22828612080174	29.091918557346798	
1.5816810241783142E12	2.0	2.2322344322344323	447.9816212668198	1398.5347985347985	100.22828612080174	29.091918557346798	
1.5816810241978455E12	2.0	2.2322344322344323	447.9816212668198	1400.7326007326005	100.2337046490384	29.091918557346798	
1.5816810242173767E12	2.0	2.235164835164835	447.39429695181906	1402.197802197802	100.22828612080174	29.091918557346798	
1.581681024236908E12	2.0	2.236630036630037	447.10121192269895	1402.9304029304028	100.22828612080174	29.091918557346798	
1.5816810242564392E12	2.0	2.2380952380952377	446.8085106382979	1405.8608058608058	100.22557686047405	29.091918557346798	
1.5816810242759705E12	2.0	2.2395604395604396	446.5161923454367	1408.7912087912086	100.22557686047405	29.091918557346798	
1.5816810242955017E12	2.0	2.243956043956044	445.64152791380997	1413.1868131868132	100.23099538365652	29.091918557346798	
1.581681024315033E12	2.0	2.241025641025641	446.22425629290615	1416.8498168498168	100.22828612080174	29.091918557346798	
1.5816810243345642E12	2.0	2.2454212454212454	445.35073409461666	1414.6520146520145	100.22557686047405	29.091918557346798	
1.5816810243540955E12	2.0	2.2454212454212454	445.35073409461666	1421.245421245421	100.2337046490384	29.091918557346798	
1.5816810243736267E12	2.0	2.2468864468864473	445.0603195304858	1424.1758241758241	100.22828612080174	29.091918557346798	
1.581681024393158E12	2.0	2.2483516483516484	444.7702834799609	1422.7106227106226	100.22828612080174	29.091918557346798	
1.5816810244126892E12	2.0	2.2498168498168503	444.48062520351675	1425.6410256410256	100.22557686047405	29.091918557346798	
1.5816810244322205E12	2.0	2.2498168498168503	444.48062520351675	1427.8388278388277	100.23641391694731	29.091918557346798	
1.5816810244517517E12	2.0	2.2512820512820513	444.19134396355355	1428.5714285714284	100.23099538365652	29.091918557346798	
1.581681024471283E12	2.0	2.252747252747253	443.9024390243902	1431.5018315018315	100.23099538365652	29.091918557346798	
1.5816810244908142E12	2.0	2.2556776556776557	443.32575511529717	1431.5018315018315	100.22557686047405	29.091918557346798	
1.5816810245103455E12	2.0	2.2556776556776557	443.32575511529717	1435.164835164835	100.22828612080174	29.091918557346798	
1.5816810245298767E12	2.0	2.257142857142857	443.0379746835443	1437.3626373626373	100.22828612080174	29.091918557346798	
1.581681024549408E12	2.0	2.26007326007326	442.46353322528364	1441.0256410256409	100.22557686047405	29.091918557346798	
1.5816810245689392E12	2.0	2.2615384615384615	442.17687074829934	1444.6886446886447	100.22557686047405	29.091918557346798	
1.5816810245884705E12	2.0	2.263003663003663	441.89057947555847	1447.6190476190475	100.22557686047405	29.091918557346798	
1.5816810246080017E12	2.0	2.2644688644688644	441.60465868650925	1452.014652014652	100.23099538365652	29.091918557346798	
1.581681024627533E12	2.0	2.265934065934066	441.31910766246364	1451.2820512820513	100.22828612080174	29.091918557346798	
1.5816810246470642E12	2.0	2.265934065934066	441.31910766246364	1454.9450549450548	100.2337046490384	29.091918557346798	
1.5816810246665955E12	2.0	2.2673992673992673	441.03392568659126	1456.4102564102564	100.23099538365652	29.091918557346798	
1.5816810246861267E12	2.0	2.2703296703296703	440.4646660212972	1457.8754578754579	100.22015834739986	29.091918557346798	
1.581681024705658E12	2.0	2.273260073260073	439.8968739929101	1460.07326007326	100.22178546815051	29.1017719254829	
1.5816810247251892E12	2.0	2.2747252747252746	439.61352657004835	1464.4688644688645	100.22991337148683	29.1017719254829	
1.5816810247447205E12	2.0	2.2761904761904765	439.3305439330544	1470.3296703296703	100.22991337148683	29.1017719254829	
1.5816810247642517E12	2.0	2.279120879120879	438.76567020250724	1471.062271062271	100.23262267765324	29.1017719254829	
1.581681024783783E12	2.0	2.2805860805860805	438.4837777063926	1474.7252747252746	100.23804129756753	29.1017719254829	
1.5816810248033142E12	2.0	2.283516483516483	437.92107795957656	1480.5860805860805	100.22991337148683	29.1017719254829	
1.5816810248228455E12	2.0	2.2864468864468863	437.35982057033004	1485.7142857142856	100.23262267765324	29.1017719254829	
1.5816810248423767E12	2.0	2.2893772893772897	436.8	1492.3076923076922	100.22991337148683	29.1017719254829	
1.581681024861908E12	2.0	2.2879120879120878	437.07973102785786	1497.4358974358972	100.22991337148683	29.1017719254829	
1.5816810248814392E12	2.0	2.298168498168498	435.1291042397195	1496.7032967032967	100.23262267765324	29.1017719254829	
1.5816810249009705E12	2.0	2.3025641025641024	434.2984409799555	1508.4249084249084	100.22178546815051	29.1017719254829	
1.5816810249205017E12	2.0	2.3054945054945053	433.7464251668256	1516.4835164835163	100.23804129756753	29.1017719254829	
1.581681024940033E12	2.0	2.3054945054945053	433.7464251668256	1522.3443223443223	100.23262267765324	29.1017719254829	
1.5816810249595642E12	2.0	2.3054945054945053	433.7464251668256	1524.5421245421244	100.23533198634682	29.1017719254829	
1.5816810249790955E12	2.0	2.3098901098901097	432.92102759276884	1526.7399267399267	100.22991337148683	29.1017719254829	
1.5816810249986267E12	2.0	2.3142857142857145	432.09876543209873	1534.7985347985348	100.22991337148683	29.1017719254829	
1.581681025018158E12	2.0	2.3172161172161174	431.55232374328165	1541.3919413919414	100.23533198634682	29.1017719254829	
1.5816810250376892E12	2.0	2.321611721611722	430.735247712212	1545.7875457875457	100.23533198634682	29.1017719254829	
1.5816810250572205E12	2.0	2.326007326007326	429.92125984251965	1554.5787545787546	100.22991337148683	29.1017719254829	
1.5816810250767517E12	2.0	2.328937728937729	429.3803082730418	1561.9047619047617	100.22991337148683	29.1017719254829	
1.581681025096283E12	2.0	2.3333333333333335	428.57142857142856	1567.032967032967	100.23533198634682	29.1017719254829	
1.5816810251158142E12	2.0	2.3362637362637364	428.0338664158043	1575.8241758241757	100.22720406784757	29.1017719254829	
1.5816810251353455E12	2.0	2.3391941391941393	427.49765111180704	1582.4175824175823	100.22720406784757	29.1017719254829	
1.5816810251548767E12	2.0	2.342124542124542	426.96277760400375	1589.7435897435896	100.21907617209273	29.1017719254829	
1.581681025174408E12	2.0	2.3435897435897437	426.69584245076584	1594.8717948717947	100.22178546815051	29.1017719254829	
1.5816810251939392E12	2.0	2.3450549450549456	426.42924086223053	1598.5347985347985	100.22991337148683	29.1017719254829	
1.5816810252134705E12	2.0	2.3479853479853485	425.8970358814352	1603.6630036630036	100.22991337148683	29.1017719254829	
1.5816810252330017E12	2.0	2.3494505494505495	425.6314312441534	1608.058608058608	100.22991337148683	29.1017719254829	
1.581681025252533E12	2.0	2.350915750915751	425.3661576815207	1610.989010989011	100.22991337148683	29.1017719254829	
1.5816810252720642E12	2.0	2.353846153846154	424.83660130718954	1616.117216117216	100.22720406784757	29.1017719254829	
1.5816810252915955E12	2.0	2.353846153846154	424.83660130718954	1619.047619047619	100.22720406784757	29.1017719254829	
1.5816810253111267E12	2.0	2.356776556776557	424.30836182778984	1620.5128205128203	100.22991337148683	29.1017719254829	
1.581681025330658E12	2.0	2.3582417582417583	424.04473438956194	1625.6410256410256	100.23533198634682	29.1017719254829	
1.5816810253501892E12	2.0	2.3597069597069598	423.78143433716235	1626.3736263736262	100.23262267765324	29.1017719254829	
1.5816810253697205E12	2.0	2.3626373626373627	423.25581395348837	1630.7692307692307	100.23262267765324	29.1017719254829	
1.5816810253892517E12	2.0	2.364102564102564	422.99349240780913	1636.6300366300366	100.22991337148683	29.1017719254829	
1.581681025408783E12	2.0	2.364102564102564	422.99349240780913	1638.095238095238	100.22991337148683	29.1017719254829	
1.5816810254283142E12	2.0	2.365567765567765	422.73149581913907	1638.8278388278386	100.23533198634682	29.1017719254829	
1.5816810254478455E12	2.0	2.365567765567765	422.73149581913907	1642.4908424908424	100.23533198634682	29.1017719254829	
1.5816810254673767E12	2.0	2.365567765567765	422.73149581913907	1643.956043956044	100.22720406784757	29.1017719254829	
1.581681025486908E12	2.0	2.367032967032967	422.4698235840297	1645.4212454212452	100.23262267765324	29.1017719254829	
1.5816810255064392E12	2.0	2.364102564102564	422.99349240780913	1646.8864468864467	100.21907617209273	29.1017719254829	
1.5816810255259705E12	2.0	2.364102564102564	422.99349240780913	1643.2234432234432	100.22720406784757	29.1017719254829	
1.5816810255455017E12	2.0	2.364102564102564	422.99349240780913	1641.7582417582416	100.22991337148683	29.1017719254829	
1.581681025565033E12	2.0	2.365567765567765	422.73149581913907	1640.2930402930401	100.22720406784757	29.1017719254829	
1.5816810255845642E12	2.0	2.364102564102564	422.99349240780913	1643.2234432234432	100.23533198634682	29.1017719254829	
1.5816810256040955E12	2.0	2.365567765567765	422.73149581913907	1641.7582417582416	100.23533198634682	29.1017719254829	
1.5816810256236267E12	2.0	2.367032967032967	422.4698235840297	1643.956043956044	100.22991337148683	29.1017719254829	
1.581681025643158E12	2.0	2.367032967032967	422.4698235840297	1646.153846153846	100.22720406784757	29.1017719254829	
1.5816810256626892E12	2.0	2.368498168498168	422.20847510052585	1647.6190476190475	100.23262267765324	29.1017719254829	
1.5816810256822205E12	2.0	2.367032967032967	422.4698235840297	1651.2820512820513	100.23262267765324	29.1017719254829	
1.5816810257017517E12	2.0	2.36996336996337	421.94744976816077	1649.8168498168498	100.23587729768612	29.121478665247558	
1.581681025721283E12	2.0	2.36996336996337	421.94744976816077	1650.5494505494505	100.23858669300365	29.121478665247558	
1.5816810257408142E12	2.0	2.36996336996337	421.94744976816077	1651.2820512820513	100.23858669300365	29.121478665247558	
1.5816810257603455E12	2.0	2.36996336996337	421.94744976816077	1651.2820512820513	100.23316790489588	29.121478665247558	
1.5816810257798767E12	2.0	2.36996336996337	421.94744976816077	1652.0146520146518	100.23316790489588	29.121478665247558	
1.581681025799408E12	2.0	2.3714285714285714	421.6867469879518	1652.0146520146518	100.23045851463294	29.121478665247558	
1.5816810258189392E12	2.0	2.372893772893773	421.4263661623958	1655.6776556776556	100.23587729768612	29.121478665247558	
1.5816810258384705E12	2.0	2.3714285714285714	421.6867469879518	1657.8754578754579	100.23045851463294	29.121478665247558	
1.5816810258580017E12	2.0	2.372893772893773	421.4263661623958	1658.6080586080584	100.23316790489588	29.121478665247558	
1.581681025877533E12	2.0	2.372893772893773	421.4263661623958	1659.3406593406592	100.23316790489588	29.121478665247558	
1.5816810258970642E12	2.0	2.374358974358975	421.16630669546436	1660.07326007326	100.23587729768612	29.121478665247558	
1.5816810259165955E12	2.0	2.374358974358975	421.16630669546436	1663.003663003663	100.23587729768612	29.121478665247558	
1.5816810259361267E12	2.0	2.375824175824176	420.90656799259943	1665.201465201465	100.23587729768612	29.121478665247558	
1.581681025955658E12	2.0	2.375824175824176	420.90656799259943	1525.2747252747251	100.23858669300365	29.121478665247558	
1.5816810259751892E12	2.0	2.374358974358975	421.16630669546436	1454.9450549450548	100.23316790489588	29.121478665247558	
1.5816810259947205E12	2.0	2.375824175824176	420.90656799259943	1560.4395604395604	100.23045851463294	29.121478665247558	
1.5816810260142517E12	2.0	2.374358974358975	421.16630669546436	1471.7948717948716	100.23587729768612	29.121478665247558	
1.581681026033783E12	2.0	2.374358974358975	421.16630669546436	1571.4285714285713	100.23045851463294	29.121478665247558	
1.5816810260533142E12	2.0	2.374358974358975	421.16630669546436	1619.047619047619	100.23316790489588	29.121478665247558	
1.5816810260728455E12	2.0	2.372893772893773	421.4263661623958	1641.7582417582416	100.23316790489588	29.121478665247558	
1.5816810260923767E12	2.0	2.374358974358975	421.16630669546436	1651.2820512820513	100.23587729768612	29.121478665247558	
1.581681026111908E12	2.0	2.372893772893773	421.4263661623958	1658.6080586080584	100.23316790489588	29.121478665247558	
1.5816810261314392E12	2.0	2.374358974358975	421.16630669546436	1659.3406593406592	100.23858669300365	29.121478665247558	
1.5816810261509705E12	2.0	2.372893772893773	421.4263661623958	1663.003663003663	100.23587729768612	29.121478665247558	
1.5816810261705017E12	2.0	2.372893772893773	421.4263661623958	1661.5384615384614	100.23316790489588	29.121478665247558	
1.581681026190033E12	2.0	2.3714285714285714	421.6867469879518	1660.8058608058607	100.23316790489588	29.121478665247558	
1.5816810262095642E12	2.0	2.36996336996337	421.94744976816077	1659.3406593406592	100.23858669300365	29.121478665247558	
1.5816810262290955E12	2.0	2.368498168498168	422.20847510052585	1655.6776556776556	100.23316790489588	29.121478665247558	
1.5816810262486267E12	2.0	2.36996336996337	421.94744976816077	1655.6776556776556	100.23858669300365	29.121478665247558	
1.581681026268158E12	2.0	2.36996336996337	421.94744976816077	1654.212454212454	100.23858669300365	29.121478665247558	
1.5816810262876892E12	2.0	2.368498168498168	422.20847510052585	1652.7472527472526	100.23587729768612	29.121478665247558	
1.5816810263072205E12	2.0	2.368498168498168	422.20847510052585	1653.4798534798533	100.23316790489588	29.121478665247558	
1.5816810263267517E12	2.0	2.36996336996337	421.94744976816077	1654.212454212454	100.23045851463294	29.121478665247558	
1.581681026346283E12	2.0	2.3714285714285714	421.6867469879518	1653.4798534798533	100.23316790489588	29.121478665247558	
1.5816810263658142E12	2.0	2.36996336996337	421.94744976816077	1655.6776556776556	100.23316790489588	29.121478665247558	
1.5816810263853455E12	2.0	2.368498168498168	422.20847510052585	1654.212454212454	100.23316790489588	29.121478665247558	
1.5816810264048767E12	2.0	2.367032967032967	422.4698235840297	1654.9450549450548	100.24129609084851	29.121478665247558	
1.581681026424408E12	2.0	2.368498168498168	422.20847510052585	1652.0146520146518	100.23858669300365	29.121478665247558	
1.5816810264439392E12	2.0	2.367032967032967	422.4698235840297	1653.4798534798533	100.23045851463294	29.121478665247558	
1.5816810264634705E12	2.0	2.368498168498168	422.20847510052585	1651.2820512820513	100.23045851463294	29.121478665247558	
1.5816810264830017E12	2.0	2.368498168498168	422.20847510052585	1653.4798534798533	100.23045851463294	29.121478665247558	
1.581681026502533E12	2.0	2.368498168498168	422.20847510052585	1654.212454212454	100.23587729768612	29.121478665247558	
1.5816810265220642E12	2.0	2.368498168498168	422.20847510052585	1654.9450549450548	100.23587729768612	29.121478665247558	
1.5816810265415955E12	2.0	2.368498168498168	422.20847510052585	1654.9450549450548	100.23045851463294	29.121478665247558	
1.5816810265611267E12	2.0	2.368498168498168	422.20847510052585	1654.9450549450548	100.23587729768612	29.121478665247558	
1.581681026580658E12	2.0	2.367032967032967	422.4698235840297	1654.9450549450548	100.23587729768612	29.121478665247558	
1.5816810266001892E12	2.0	2.367032967032967	422.4698235840297	1652.0146520146518	100.23316790489588	29.121478665247558	
1.5816810266197205E12	2.0	2.367032967032967	422.4698235840297	1650.5494505494505	100.23045851463294	29.121478665247558	
1.5816810266392517E12	2.0	2.365567765567765	422.73149581913907	1649.8168498168498	100.23316790489588	29.121478665247558	
1.581681026658783E12	2.0	2.3626373626373627	423.25581395348837	1648.3516483516482	100.23045851463294	29.121478665247558	
1.5816810266783142E12	2.0	2.3626373626373627	423.25581395348837	1646.153846153846	100.23587729768612	29.121478665247558	
1.5816810266978455E12	2.0	2.3626373626373627	423.25581395348837	1644.6886446886447	100.23831829073885	29.136258723126957	
1.5816810267173767E12	2.0	2.361172161172161	423.51846106112316	1643.956043956044	100.24102775102487	29.136258723126957	
1.581681026736908E12	2.0	2.3626373626373627	423.25581395348837	1641.0256410256409	100.23289937774909	29.136258723126957	
1.5816810267564392E12	2.0	2.3626373626373627	423.25581395348837	1641.7582417582416	100.24102775102487	29.136258723126957	
1.5816810267759705E12	2.0	2.361172161172161	423.51846106112316	1642.4908424908424	100.23831829073885	29.136258723126957	
1.5816810267955017E12	2.0	2.3597069597069598	423.78143433716235	1639.5604395604394	100.24102775102487	29.136258723126957	
1.581681026815033E12	2.0	2.3582417582417583	424.04473438956194	1637.3626373626373	100.22748047486904	29.136258723126957	
1.5816810268345642E12	2.0	2.356776556776557	424.30836182778984	1632.9670329670328	100.23560883298025	29.136258723126957	
1.5816810268540955E12	2.0	2.3597069597069598	423.78143433716235	1632.2344322344322	100.23289937774909	29.136258723126957	
1.5816810268736267E12	2.0	2.353846153846154	424.83660130718954	1633.6996336996335	100.23831829073885	29.136258723126957	
1.581681026893158E12	2.0	2.350915750915751	425.3661576815207	1628.5714285714284	100.22748047486904	29.136258723126957	
1.5816810269126892E12	2.0	2.353846153846154	424.83660130718954	1624.9084249084249	100.24102775102487	29.136258723126957	
1.5816810269322205E12	2.0	2.355311355311355	424.5723172628305	1624.1758241758241	100.24102775102487	29.136258723126957	
1.5816810269517517E12	2.0	2.353846153846154	424.83660130718954	1624.9084249084249	100.23831829073885	29.136258723126957	
1.581681026971283E12	2.0	2.350915750915751	425.3661576815207	1623.4432234432234	100.23289937774909	29.136258723126957	
1.5816810269908142E12	2.0	2.3494505494505495	425.6314312441534	1622.7106227106226	100.23289937774909	29.136258723126957	
1.5816810270103455E12	2.0	2.3494505494505495	425.6314312441534	1618.3150183150183	100.23289937774909	29.136258723126957	
1.5816810270298767E12	2.0	2.3479853479853485	425.8970358814352	1616.8498168498168	100.22748047486904	29.136258723126957	
1.581681027049408E12	2.0	2.3465201465201466	426.1629722135498	1614.6520146520145	100.22477102722017	29.136258723126957	
1.5816810270689392E12	2.0	2.3450549450549456	426.42924086223053	1610.989010989011	100.22477102722017	29.136258723126957	
1.5816810270884705E12	2.0	2.3450549450549456	426.42924086223053	1610.989010989011	100.23289937774909	29.136258723126957	
1.5816810271080017E12	2.0	2.3435897435897437	426.69584245076584	1609.5238095238094	100.22206158209872	29.136258723126957	
1.581681027127533E12	2.0	2.340659340659341	427.2300469483568	1605.8608058608058	100.22477102722017	29.136258723126957	
1.5816810271470642E12	2.0	2.340659340659341	427.2300469483568	1600.7326007326005	100.23289937774909	29.136258723126957	
1.5816810271665955E12	2.0	2.340659340659341	427.2300469483568	1597.8021978021977	100.23289937774909	29.136258723126957	
1.5816810271861267E12	2.0	2.3391941391941393	427.49765111180704	1596.3369963369962	100.23831829073885	29.136258723126957	
1.581681027205658E12	2.0	2.3391941391941393	427.49765111180704	1597.069597069597	100.22477102722017	29.136258723126957	
1.5816810272251892E12	2.0	2.337728937728938	427.765590723911	1597.069597069597	100.22748047486904	29.136258723126957	
1.5816810272447205E12	2.0	2.337728937728938	427.765590723911	1594.139194139194	100.23289937774909	29.136258723126957	
1.5816810272642517E12	2.0	2.337728937728938	427.765590723911	1593.4065934065934	100.23289937774909	29.136258723126957	
1.581681027283783E12	2.0	2.337728937728938	427.765590723911	1591.9413919413919	100.23560883298025	29.136258723126957	
1.5816810273033142E12	2.0	2.3362637362637364	428.0338664158043	1591.9413919413919	100.23289937774909	29.136258723126957	
1.5816810273228455E12	2.0	2.334798534798535	428.30247882020706	1590.4761904761904	100.22477102722017	29.136258723126957	
1.5816810273423767E12	2.0	2.334798534798535	428.30247882020706	1586.8131868131868	100.22477102722017	29.136258723126957	
1.581681027361908E12	2.0	2.334798534798535	428.30247882020706	1585.3479853479853	100.23560883298025	29.136258723126957	
1.5816810273814392E12	2.0	2.3333333333333335	428.57142857142856	1583.8827838827838	100.22477102722017	29.136258723126957	
1.5816810274009705E12	2.0	2.331868131868132	428.84071630537227	1585.3479853479853	100.23289937774909	29.136258723126957	
1.5816810274205017E12	2.0	2.3304029304029306	429.110342659541	1582.4175824175823	100.23560883298025	29.136258723126957	
1.581681027440033E12	2.0	2.3274725274725276	429.65061378659107	1580.9523809523807	100.22477102722017	29.136258723126957	
1.5816810274595642E12	2.0	2.328937728937729	429.3803082730418	1578.7545787545787	100.23560883298025	29.136258723126957	
1.5816810274790955E12	2.0	2.328937728937729	429.3803082730418	1575.091575091575	100.23289937774909	29.136258723126957	
1.5816810274986267E12	2.0	2.328937728937729	429.3803082730418	1573.6263736263736	100.22206158209872	29.136258723126957	
1.581681027518158E12	2.0	2.3304029304029306	429.110342659541	1572.8937728937728	100.23289937774909	29.136258723126957	
1.5816810275376892E12	2.0	2.3274725274725276	429.65061378659107	1575.8241758241757	100.23289937774909	29.136258723126957	
1.5816810275572205E12	2.0	2.3274725274725276	429.65061378659107	1575.8241758241757	100.22748047486904	29.136258723126957	
1.5816810275767517E12	2.0	2.326007326007326	429.92125984251965	1575.8241758241757	100.23289937774909	29.136258723126957	
1.581681027596283E12	2.0	2.326007326007326	429.92125984251965	1572.161172161172	100.22477102722017	29.136258723126957	
1.5816810276158142E12	2.0	2.326007326007326	429.92125984251965	1570.6959706959706	100.22748047486904	29.136258723126957	
1.5816810276353455E12	2.0	2.323076923076923	430.4635761589404	1570.6959706959706	100.22206158209872	29.136258723126957	
1.5816810276548767E12	2.0	2.323076923076923	430.4635761589404	1566.3003663003662	100.22477102722017	29.136258723126957	
1.581681027674408E12	2.0	2.321611721611722	430.735247712212	1563.3699633699632	100.22477102722017	29.136258723126957	
1.5816810276939392E12	2.0	2.3201465201465203	431.00726239343226	1564.102564102564	100.2263981527041	29.146112096501746	
1.5816810277134705E12	2.0	2.3201465201465203	431.00726239343226	1561.1721611721612	100.23452663316972	29.146112096501746	
1.5816810277330017E12	2.0	2.3201465201465203	431.00726239343226	1559.7069597069597	100.23723613171327	29.146112096501746	
1.581681027752533E12	2.0	2.3201465201465203	431.00726239343226	1558.974358974359	100.22910764366513	29.146112096501746	
1.5816810277720642E12	2.0	2.318681318681319	431.27962085308053	1558.974358974359	100.23452663316972	29.146112096501746	
1.5816810277915955E12	2.0	2.318681318681319	431.27962085308053	1557.5091575091574	100.2263981527041	29.146112096501746	
1.5816810278111267E12	2.0	2.318681318681319	431.27962085308053	1557.5091575091574	100.2263981527041	29.146112096501746	
1.581681027830658E12	2.0	2.318681318681319	431.27962085308053	1556.7765567765566	100.23452663316972	29.146112096501746	
1.5816810278501892E12	2.0	2.3172161172161174	431.55232374328165	1556.7765567765566	100.2263981527041	29.146112096501746	
1.5816810278697205E12	2.0	2.3172161172161174	431.55232374328165	1553.8461538461538	100.2263981527041	29.146112096501746	
1.5816810278892517E12	2.0	2.315750915750916	431.82537171781075	1552.3809523809523	100.2263981527041	29.146112096501746	
1.581681027908783E12	2.0	2.3142857142857145	432.09876543209873	1553.113553113553	100.22910764366513	29.146112096501746	
1.5816810279283142E12	2.0	2.3142857142857145	432.09876543209873	1550.18315018315	100.2263981527041	29.146112096501746	
1.5816810279478455E12	2.0	2.312820512820512	432.3725055432373	1549.4505494505493	100.23723613171327	29.146112096501746	
1.5816810279673767E12	2.0	2.312820512820512	432.3725055432373	1547.2527472527472	100.2263981527041	29.146112096501746	
1.581681027986908E12	2.0	2.312820512820512	432.3725055432373	1546.5201465201465	100.2263981527041	29.146112096501746	
1.5816810280064392E12	2.0	2.311355311355311	432.6465927099842	1546.5201465201465	100.2263981527041	29.146112096501746	
1.5816810280259705E12	2.0	2.311355311355311	432.6465927099842	1542.8571428571427	100.23723613171327	29.146112096501746	
1.5816810280455017E12	2.0	2.3098901098901097	432.92102759276884	1541.3919413919414	100.23452663316972	29.146112096501746	
1.581681028065033E12	2.0	2.3084249084249087	433.19581085369725	1542.1245421245421	100.22910764366513	29.146112096501746	
1.5816810280845642E12	2.0	2.3084249084249087	433.19581085369725	1539.9267399267399	100.2263981527041	29.146112096501746	
1.5816810281040955E12	2.0	2.3069597069597068	433.47094315655767	1537.7289377289376	100.2263981527041	29.146112096501746	
1.5816810281236267E12	2.0	2.3069597069597068	433.47094315655767	1536.263736263736	100.22910764366513	29.146112096501746	
1.581681028143158E12	2.0	2.3069597069597068	433.47094315655767	1535.5311355311355	100.2263981527041	29.146112096501746	
1.5816810281626892E12	2.0	2.3054945054945053	433.7464251668256	1535.5311355311355	100.2263981527041	29.146112096501746	
1.5816810281822205E12	2.0	2.3054945054945053	433.7464251668256	1531.8681318681317	100.2263981527041	29.146112096501746	
1.5816810282017517E12	2.0	2.304029304029304	434.0222575516693	1530.4029304029302	100.22910764366513	29.146112096501746	
1.581681028221283E12	2.0	2.304029304029304	434.0222575516693	1531.135531135531	100.2263981527041	29.146112096501746	
1.5816810282408142E12	2.0	2.304029304029304	434.0222575516693	1531.135531135531	100.23452663316972	29.146112096501746	
1.5816810282603455E12	2.0	2.3025641025641024	434.2984409799555	1531.135531135531	100.2263981527041	29.146112096501746	
1.5816810282798767E12	2.0	2.3025641025641024	434.2984409799555	1528.2051282051282	100.22910764366513	29.146112096501746	
1.581681028299408E12	2.0	2.301098901098901	434.5749761222541	1526.7399267399267	100.22910764366513	29.146112096501746	
1.5816810283189392E12	2.0	2.3025641025641024	434.2984409799555	1525.2747252747251	100.22910764366513	29.146112096501746	
1.5816810283384705E12	2.0	2.3025641025641024	434.2984409799555	1524.5421245421244	100.22368866427057	29.146112096501746	
1.5816810283580017E12	2.0	2.301098901098901	434.5749761222541	1524.5421245421244	100.2263981527041	29.146112096501746	
1.581681028377533E12	2.0	2.301098901098901	434.5749761222541	1523.8095238095236	100.22910764366513	29.146112096501746	
1.5816810283970642E12	2.0	2.301098901098901	434.5749761222541	1523.8095238095236	100.22910764366513	29.146112096501746	
1.5816810284165955E12	2.0	2.299633699633699	434.8518636508443	1523.8095238095236	100.2263981527041	29.146112096501746	
1.5816810284361267E12	2.0	2.299633699633699	434.8518636508443	1520.14652014652	100.22368866427057	29.146112096501746	
1.581681028455658E12	2.0	2.298168498168498	435.1291042397195	1518.6813186813185	100.23723613171327	29.146112096501746	
1.5816810284751892E12	2.0	2.298168498168498	435.1291042397195	1520.14652014652	100.23452663316972	29.146112096501746	
1.5816810284947205E12	2.0	2.298168498168498	435.1291042397195	1520.14652014652	100.2263981527041	29.146112096501746	
1.5816810285142517E12	2.0	2.2967032967032965	435.40669856459334	1520.8791208791208	100.23723613171327	29.146112096501746	
1.581681028533783E12	2.0	2.2967032967032965	435.40669856459334	1517.216117216117	100.22097917836454	29.146112096501746	
1.5816810285533142E12	2.0	2.2967032967032965	435.40669856459334	1515.7509157509157	100.2263981527041	29.146112096501746	
1.5816810285728455E12	2.0	2.295238095238095	435.6846473029046	1515.018315018315	100.2263981527041	29.146112096501746	
1.5816810285923767E12	2.0	2.2967032967032965	435.40669856459334	1513.5531135531135	100.22368866427057	29.146112096501746	
1.581681028611908E12	2.0	2.295238095238095	435.6846473029046	1514.2857142857142	100.2263981527041	29.146112096501746	
1.5816810286314392E12	2.0	2.295238095238095	435.6846473029046	1512.8205128205127	100.23452663316972	29.146112096501746	
1.5816810286509705E12	2.0	2.2937728937728936	435.9629511338231	1512.8205128205127	100.22097917836454	29.146112096501746	
1.5816810286705017E12	2.0	2.2937728937728936	435.9629511338231	1509.1575091575091	100.2263981527041	29.146112096501746	
1.581681028690033E12	2.0	2.2908424908424907	436.52062679884875	1507.6923076923076	100.22802528886007	29.15596547104069	
1.5816810287095642E12	2.0	2.2893772893772897	436.8	1506.227106227106	100.23073482313345	29.15596547104069	
1.5816810287290955E12	2.0	2.2893772893772897	436.8	1504.0293040293038	100.23615389926294	29.15596547104069	
1.5816810287486267E12	2.0	2.2908424908424907	436.52062679884875	1504.0293040293038	100.22531575711427	29.15596547104069	
1.581681028768158E12	2.0	2.2879120879120878	437.07973102785786	1503.2967032967033	100.23615389926294	29.15596547104069	
1.5816810287876892E12	2.0	2.2864468864468863	437.35982057033004	1499.6336996336995	100.23615389926294	29.15596547104069	
1.5816810288072205E12	2.0	2.2864468864468863	437.35982057033004	1499.6336996336995	100.23073482313345	29.15596547104069	
1.5816810288267517E12	2.0	2.2864468864468863	437.35982057033004	1499.6336996336995	100.22802528886007	29.15596547104069	
1.581681028846283E12	2.0	2.284981684981685	437.64026931708884	1498.9010989010987	100.23073482313345	29.15596547104069	
1.5816810288658142E12	2.0	2.284981684981685	437.64026931708884	1495.970695970696	100.23886344111908	29.15596547104069	
1.5816810288853455E12	2.0	2.283516483516483	437.92107795957656	1494.5054945054944	100.23073482313345	29.15596547104069	
1.5816810289048767E12	2.0	2.282051282051282	438.2022471910113	1493.040293040293	100.23886344111908	29.15596547104069	
1.581681028924408E12	2.0	2.279120879120879	438.76567020250724	1488.6446886446886	100.22802528886007	29.15596547104069	
1.5816810289439392E12	2.0	2.2776556776556776	439.04792537793503	1484.2490842490843	100.23615389926294	29.15596547104069	
1.5816810289634705E12	2.0	2.2747252747252746	439.61352657004835	1481.3186813186812	100.22802528886007	29.15596547104069	
1.5816810289830017E12	2.0	2.273260073260073	439.8968739929101	1479.120879120879	100.22802528886007	29.15596547104069	
1.581681029002533E12	2.0	2.2717948717948717	440.1805869074492	1474.7252747252746	100.23073482313345	29.15596547104069	
1.5816810290220642E12	2.0	2.2717948717948717	440.1805869074492	1471.7948717948716	100.23886344111908	29.15596547104069	
1.5816810290415955E12	2.0	2.2717948717948717	440.1805869074492	1470.3296703296703	100.22802528886007	29.15596547104069	
1.5816810290611267E12	2.0	2.2703296703296703	440.4646660212972	1469.5970695970695	100.23886344111908	29.15596547104069	
1.581681029080658E12	2.0	2.263003663003663	441.89057947555847	1465.9340659340658	100.24428253241409	29.15596547104069	
1.5816810291001892E12	2.0	2.257142857142857	443.0379746835443	1461.5384615384614	100.23615389926294	29.15596547104069	
1.5816810291197205E12	2.0	2.2542124542124538	443.6139096522587	1454.212454212454	100.22802528886007	29.15596547104069	
1.5816810291392517E12	2.0	2.2542124542124538	443.6139096522587	1446.153846153846	100.22531575711427	29.15596547104069	
1.581681029158783E12	2.0	2.252747252747253	443.9024390243902	1442.4908424908424	100.22802528886007	29.15596547104069	
1.5816810291783142E12	2.0	2.2498168498168503	444.48062520351675	1437.3626373626373	100.22802528886007	29.15596547104069	
1.5816810291978455E12	2.0	2.2498168498168503	444.48062520351675	1433.6996336996335	100.22531575711427	29.15596547104069	
1.5816810292173767E12	2.0	2.2483516483516484	444.7702834799609	1431.5018315018315	100.22802528886007	29.15596547104069	
1.581681029236908E12	2.0	2.2468864468864473	445.0603195304858	1430.03663003663	100.22260622789608	29.15596547104069	
1.5816810292564392E12	2.0	2.243956043956044	445.64152791380997	1426.3736263736262	100.22802528886007	29.15596547104069	
1.5816810292759705E12	2.0	2.241025641025641	446.22425629290615	1423.4432234432234	100.22260622789608	29.15596547104069	
1.5816810292955017E12	2.0	2.241025641025641	446.22425629290615	1418.3150183150183	100.22802528886007	29.15596547104069	
1.581681029315033E12	2.0	2.2395604395604396	446.5161923454367	1416.117216117216	100.23615389926294	29.15596547104069	
1.5816810293345642E12	2.0	2.2380952380952377	446.8085106382979	1416.8498168498168	100.23615389926294	29.15596547104069	
1.5816810293540955E12	2.0	2.2380952380952377	446.8085106382979	1413.9194139194137	100.23615389926294	29.15596547104069	
1.5816810293736267E12	2.0	2.235164835164835	447.39429695181906	1412.4542124542124	100.22802528886007	29.15596547104069	
1.581681029393158E12	2.0	2.2336996336996338	447.68776648081337	1408.058608058608	100.22802528886007	29.15596547104069	
1.5816810294126892E12	2.0	2.235164835164835	447.39429695181906	1408.7912087912086	100.22802528886007	29.15596547104069	
1.5816810294322205E12	2.0	2.230769230769231	448.2758620689655	1405.8608058608058	100.23615389926294	29.15596547104069	
1.5816810294517517E12	2.0	2.2263736263736265	449.16090819348466	1404.3956043956043	100.23615389926294	29.15596547104069	
1.581681029471283E12	2.0	2.2293040293040294	448.5704896483733	1398.5347985347985	100.22802528886007	29.15596547104069	
1.5816810294908142E12	2.0	2.2293040293040294	448.5704896483733	1397.069597069597	100.23073482313345	29.15596547104069	
1.5816810295103455E12	2.0	2.2278388278388275	448.86550476816836	1396.3369963369962	100.22802528886007	29.15596547104069	
1.5816810295298767E12	2.0	2.2278388278388275	448.86550476816836	1398.5347985347985	100.22531575711427	29.15596547104069	
1.581681029549408E12	2.0	2.224908424908425	449.45670069147184	1399.2673992673992	100.23073482313345	29.15596547104069	
1.5816810295689392E12	2.0	2.2234432234432235	449.75288303130145	1395.6043956043954	100.22802528886007	29.15596547104069	
1.5816810295884705E12	2.0	2.221978021978022	450.0494559841741	1391.2087912087911	100.22802528886007	29.15596547104069	
1.5816810296080017E12	2.0	2.2234432234432235	449.75288303130145	1391.2087912087911	100.22531575711427	29.15596547104069	
1.581681029627533E12	2.0	2.221978021978022	450.0494559841741	1389.0109890109889	100.23073482313345	29.15596547104069	
1.5816810296470642E12	2.0	2.221978021978022	450.0494559841741	1390.4761904761904	100.22802528886007	29.15596547104069	
1.5816810296665955E12	2.0	2.221978021978022	450.0494559841741	1391.2087912087911	100.22802528886007	29.15596547104069	
1.5816810296861267E12	2.0	2.221978021978022	450.0494559841741	1391.2087912087911	100.22802528886007	29.15596547104069	
1.581681029705658E12	2.0	2.2205128205128206	450.3464203233256	1391.9413919413919	100.23073482313345	29.15596547104069	
1.5816810297251892E12	2.0	2.2205128205128206	450.3464203233256	1388.278388278388	100.23073482313345	29.15596547104069	
1.5816810297447205E12	2.0	2.2205128205128206	450.3464203233256	1387.5457875457876	100.24157298550278	29.15596547104069	
1.5816810297642517E12	2.0	2.219047619047619	450.6437768240343	1386.080586080586	100.23886344111908	29.15596547104069	
1.581681029783783E12	2.0	2.2175824175824177	450.94152626362734	1385.3479853479853	100.23073482313345	29.15596547104069	
1.5816810298033142E12	2.0	2.219047619047619	450.6437768240343	1382.4175824175823	100.23073482313345	29.15596547104069	
1.5816810298228455E12	2.0	2.219047619047619	450.6437768240343	1383.8827838827838	100.22802528886007	29.15596547104069	
1.5816810298423767E12	2.0	2.219047619047619	450.6437768240343	1383.8827838827838	100.23615389926294	29.15596547104069	
1.581681029861908E12	2.0	2.224908424908425	449.45670069147184	1385.3479853479853	100.24157298550278	29.15596547104069	
1.5816810298814392E12	2.0	2.2234432234432235	449.75288303130145	1389.7435897435896	100.24428253241409	29.15596547104069	
1.5816810299009705E12	2.0	2.224908424908425	449.45670069147184	1388.278388278388	100.23615389926294	29.15596547104069	
1.5816810299205017E12	2.0	2.2263736263736265	449.16090819348466	1390.4761904761904	100.23615389926294	29.15596547104069	
1.581681029940033E12	2.0	2.2263736263736265	449.16090819348466	1392.6739926739926	100.22802528886007	29.15596547104069	
1.5816810299595642E12	2.0	2.2293040293040294	448.5704896483733	1394.139194139194	100.22802528886007	29.15596547104069	
1.5816810299790955E12	2.0	2.2322344322344323	447.9816212668198	1395.6043956043954	100.23073482313345	29.15596547104069	
1.5816810299986267E12	2.0	2.2336996336996338	447.68776648081337	1400.0	100.22531575711427	29.15596547104069	
1.581681030018158E12	2.0	2.2336996336996338	447.68776648081337	1404.3956043956043	100.22802528886007	29.15596547104069	
1.5816810300376892E12	2.0	2.236630036630037	447.10121192269895	1407.3260073260071	100.22802528886007	29.15596547104069	
1.5816810300572205E12	2.0	2.2380952380952377	446.8085106382979	1408.7912087912086	100.22802528886007	29.15596547104069	
1.5816810300767517E12	2.0	2.243956043956044	445.64152791380997	1410.2564102564102	100.22802528886007	29.15596547104069	
1.581681030096283E12	2.0	2.2454212454212454	445.35073409461666	1415.3846153846152	100.23615389926294	29.15596547104069	
1.5816810301158142E12	2.0	2.2454212454212454	445.35073409461666	1421.245421245421	100.22802528886007	29.15596547104069	
1.5816810301353455E12	2.0	2.2468864468864473	445.0603195304858	1424.9084249084249	100.22802528886007	29.15596547104069	
1.5816810301548767E12	2.0	2.2483516483516484	444.7702834799609	1423.4432234432234	100.22531575711427	29.15596547104069	
1.581681030174408E12	2.0	2.2498168498168503	444.48062520351675	1426.3736263736262	100.22802528886007	29.15596547104069	
1.5816810301939392E12	2.0	2.2498168498168503	444.48062520351675	1427.8388278388277	100.23615389926294	29.15596547104069	
1.5816810302134705E12	2.0	2.2483516483516484	444.7702834799609	1428.5714285714284	100.22802528886007	29.15596547104069	
1.5816810302330017E12	2.0	2.2483516483516484	444.7702834799609	1428.5714285714284	100.23615389926294	29.15596547104069	
1.581681030252533E12	2.0	2.2483516483516484	444.7702834799609	1428.5714285714284	100.23073482313345	29.15596547104069	
1.5816810302720642E12	2.0	2.2483516483516484	444.7702834799609	1428.5714285714284	100.22531575711427	29.15596547104069	
1.5816810302915955E12	2.0	2.2483516483516484	444.7702834799609	1427.8388278388277	100.22802528886007	29.15596547104069	
1.5816810303111267E12	2.0	2.2468864468864473	445.0603195304858	1427.8388278388277	100.22260622789608	29.15596547104069	
1.581681030330658E12	2.0	2.2483516483516484	444.7702834799609	1425.6410256410256	100.23073482313345	29.15596547104069	
1.5816810303501892E12	2.0	2.2483516483516484	444.7702834799609	1426.3736263736262	100.23073482313345	29.15596547104069	
1.5816810303697205E12	2.0	2.2468864468864473	445.0603195304858	1427.8388278388277	100.22802528886007	29.15596547104069	
1.5816810303892517E12	2.0	2.2468864468864473	445.0603195304858	1424.9084249084249	100.22802528886007	29.15596547104069	
1.581681030408783E12	2.0	2.2468864468864473	445.0603195304858	1423.4432234432234	100.23615389926294	29.15596547104069	
1.5816810304283142E12	2.0	2.2468864468864473	445.0603195304858	1422.7106227106226	100.23073482313345	29.15596547104069	
1.5816810304478455E12	2.0	2.2468864468864473	445.0603195304858	1422.7106227106226	100.22802528886007	29.15596547104069	
1.5816810304673767E12	2.0	2.2468864468864473	445.0603195304858	1421.9780219780218	100.22260622789608	29.15596547104069	
1.581681030486908E12	2.0	2.2468864468864473	445.0603195304858	1421.9780219780218	100.22531575711427	29.15596547104069	
1.5816810305064392E12	2.0	2.2468864468864473	445.0603195304858	1421.9780219780218	100.22802528886007	29.15596547104069	
1.5816810305259705E12	2.0	2.2454212454212454	445.35073409461666	1421.9780219780218	100.23073482313345	29.15596547104069	
1.5816810305455017E12	2.0	2.2468864468864473	445.0603195304858	1424.1758241758241	100.22802528886007	29.15596547104069	
1.581681030565033E12	2.0	2.2454212454212454	445.35073409461666	1423.4432234432234	100.23073482313345	29.15596547104069	
1.5816810305845642E12	2.0	2.2454212454212454	445.35073409461666	1424.9084249084249	100.22531575711427	29.15596547104069	
1.5816810306040955E12	2.0	2.2454212454212454	445.35073409461666	1426.3736263736262	100.22802528886007	29.15596547104069	
1.5816810306236267E12	2.0	2.2454212454212454	445.35073409461666	1427.106227106227	100.22802528886007	29.15596547104069	
1.581681030643158E12	2.0	2.2454212454212454	445.35073409461666	1427.106227106227	100.22531575711427	29.15596547104069	
1.5816810306626892E12	2.0	2.2454212454212454	445.35073409461666	1427.106227106227	100.22260622789608	29.15596547104069	
1.5816810306822205E12	2.0	2.2454212454212454	445.35073409461666	1427.106227106227	100.22504682219927	29.17074553503189	
1.5816810307017517E12	2.0	2.2454212454212454	445.35073409461666	1427.106227106227	100.23046601310064	29.17074553503189	
1.581681030721283E12	2.0	2.2454212454212454	445.35073409461666	1426.3736263736262	100.23859481841043	29.17074553503189	
1.5816810307408142E12	2.0	2.2454212454212454	445.35073409461666	1427.106227106227	100.23046601310064	29.17074553503189	
1.5816810307603455E12	2.0	2.243956043956044	445.64152791380997	1426.3736263736262	100.22504682219927	29.17074553503189	
1.5816810307798767E12	2.0	2.243956043956044	445.64152791380997	1423.4432234432234	100.22775641638611	29.17074553503189	
1.581681030799408E12	2.0	2.243956043956044	445.64152791380997	1421.9780219780218	100.23046601310064	29.17074553503189	
1.5816810308189392E12	2.0	2.243956043956044	445.64152791380997	1421.245421245421	100.22504682219927	29.17074553503189	
1.5816810308384705E12	2.0	2.2424908424908425	445.9327017314603	1421.245421245421	100.22775641638611	29.17074553503189	
1.5816810308580017E12	2.0	2.2395604395604396	446.5161923454367	1420.5128205128203	100.23317561234288	29.17074553503189	
1.581681030877533E12	2.0	2.236630036630037	447.10121192269895	1419.047619047619	100.24130442523577	29.17074553503189	
1.5816810308970642E12	2.0	2.2278388278388275	448.86550476816836	1414.6520146520145	100.23046601310064	29.17074553503189	
1.5816810309165955E12	2.0	2.221978021978022	450.0494559841741	1407.3260073260071	100.23046601310064	29.17074553503189	
1.5816810309361267E12	2.0	2.2205128205128206	450.3464203233256	1400.0	100.23046601310064	29.17074553503189	
1.581681030955658E12	2.0	2.219047619047619	450.6437768240343	1392.6739926739926	100.23317561234288	29.17074553503189	
1.5816810309751892E12	2.0	2.2175824175824177	450.94152626362734	1389.0109890109889	100.22504682219927	29.17074553503189	
1.5816810309947205E12	2.0	2.2146520146520148	451.5382070790605	1383.150183150183	100.23046601310064	29.17074553503189	
1.5816810310142517E12	2.0	2.2146520146520148	451.5382070790605	1380.2197802197802	100.22775641638611	29.17074553503189	
1.581681031033783E12	2.0	2.2131868131868133	451.83714001986095	1379.4871794871794	100.23046601310064	29.17074553503189	
1.5816810310533142E12	2.0	2.211721611721612	452.13646902947994	1377.2893772893772	100.22504682219927	29.17074553503189	
1.5816810310728455E12	2.0	2.2102564102564104	452.4361948955916	1373.6263736263736	100.22504682219927	29.17074553503189	
1.5816810310923767E12	2.0	2.2102564102564104	452.4361948955916	1374.3589743589744	100.22775641638611	29.17074553503189	
1.581681031111908E12	2.0	2.2102564102564104	452.4361948955916	1373.6263736263736	100.23046601310064	29.17074553503189	
1.5816810311314392E12	2.0	2.2102564102564104	452.4361948955916	1374.3589743589744	100.22775641638611	29.17074553503189	
1.5816810311509705E12	2.0	2.2102564102564104	452.4361948955916	1373.6263736263736	100.22233723054015	29.17074553503189	
1.5816810311705017E12	2.0	2.2102564102564104	452.4361948955916	1374.3589743589744	100.22504682219927	29.17074553503189	
1.581681031190033E12	2.0	2.208791208791209	452.73631840796014	1373.6263736263736	100.22504682219927	29.17074553503189	
1.5816810312095642E12	2.0	2.2102564102564104	452.4361948955916	1370.6959706959706	100.22233723054015	29.17074553503189	
1.5816810312290955E12	2.0	2.2102564102564104	452.4361948955916	1372.8937728937728	100.22504682219927	29.17074553503189	
1.5816810312486267E12	2.0	2.211721611721612	452.13646902947994	1373.6263736263736	100.22504682219927	29.17074553503189	
1.581681031268158E12	2.0	2.2131868131868133	451.83714001986095	1371.4285714285713	100.22775641638611	29.17074553503189	
1.5816810312876892E12	2.0	2.2161172161172162	451.2396694214876	1374.3589743589744	100.23046601310064	29.17074553503189	
1.5816810313072205E12	2.0	2.2175824175824177	450.94152626362734	1378.7545787545787	100.22775641638611	29.17074553503189	
1.5816810313267517E12	2.0	2.219047619047619	450.6437768240343	1378.021978021978	100.22504682219927	29.17074553503189	
1.581681031346283E12	2.0	2.221978021978022	450.0494559841741	1381.6849816849815	100.22775641638611	29.17074553503189	
1.5816810313658142E12	2.0	2.224908424908425	449.45670069147184	1386.080586080586	100.23046601310064	29.17074553503189	
1.5816810313853455E12	2.0	2.2263736263736265	449.16090819348466	1389.7435897435896	100.22504682219927	29.17074553503189	
1.5816810314048767E12	2.0	2.230769230769231	448.2758620689655	1391.9413919413919	100.23859481841043	29.17074553503189	
1.581681031424408E12	2.0	2.2336996336996338	447.68776648081337	1397.069597069597	100.22775641638611	29.17074553503189	
1.5816810314439392E12	2.0	2.2322344322344323	447.9816212668198	1402.9304029304028	100.22504682219927	29.17074553503189	
1.5816810314634705E12	2.0	2.2336996336996338	447.68776648081337	1402.9304029304028	100.22233723054015	29.17074553503189	
1.5816810314830017E12	2.0	2.2336996336996338	447.68776648081337	1405.128205128205	100.22504682219927	29.17074553503189	
1.581681031502533E12	2.0	2.235164835164835	447.39429695181906	1406.5934065934066	100.23046601310064	29.17074553503189	
1.5816810315220642E12	2.0	2.2380952380952377	446.8085106382979	1405.128205128205	100.22504682219927	29.17074553503189	
1.5816810315415955E12	2.0	2.2395604395604396	446.5161923454367	1408.058608058608	100.23046601310064	29.17074553503189	
1.5816810315611267E12	2.0	2.241025641025641	446.22425629290615	1412.4542124542124	100.22775641638611	29.17074553503189	
1.581681031580658E12	2.0	2.243956043956044	445.64152791380997	1412.4542124542124	100.22233723054015	29.17074553503189	
1.5816810316001892E12	2.0	2.2454212454212454	445.35073409461666	1416.8498168498168	100.22504682219927	29.17074553503189	
1.5816810316197205E12	2.0	2.2468864468864473	445.0603195304858	1421.9780219780218	100.23046601310064	29.17074553503189	
1.5816810316392517E12	2.0	2.2483516483516484	444.7702834799609	1421.9780219780218	100.22504682219927	29.17074553503189	
1.581681031658783E12	2.0	2.2498168498168503	444.48062520351675	1424.1758241758241	100.23046601310064	29.17074553503189	
1.5816810316783142E12	2.0	2.2512820512820513	444.19134396355355	1427.106227106227	100.23127959318174	29.175672223611038	
1.5816810316978455E12	2.0	2.2512820512820513	444.19134396355355	1430.7692307692307	100.22586035896774	29.175672223611038	
1.5816810317173767E12	2.0	2.2512820512820513	444.19134396355355	1432.9670329670328	100.22586035896774	29.175672223611038	
1.581681031736908E12	2.0	2.2512820512820513	444.19134396355355	1433.6996336996335	100.23127959318174	29.175672223611038	
1.5816810317564392E12	2.0	2.252747252747253	443.9024390243902	1434.4322344322343	100.23127959318174	29.175672223611038	
1.5816810317759705E12	2.0	2.2542124542124538	443.6139096522587	1432.9670329670328	100.22856997481088	29.175672223611038	
1.5816810317955017E12	2.0	2.2542124542124538	443.6139096522587	1435.164835164835	100.23127959318174	29.175672223611038	
1.581681031815033E12	2.0	2.2542124542124538	443.6139096522587	1436.6300366300366	100.22586035896774	29.175672223611038	
1.5816810318345642E12	2.0	2.2556776556776557	443.32575511529717	1437.3626373626373	100.22315074565235	29.175672223611038	
1.5816810318540955E12	2.0	2.257142857142857	443.0379746835443	1438.095238095238	100.2204411348647	29.175672223611038	
1.5816810318736267E12	2.0	2.257142857142857	443.0379746835443	1441.0256410256409	100.22856997481088	29.175672223611038	
1.581681031893158E12	2.0	2.2586080586080586	442.75056762893286	1442.4908424908424	100.22856997481088	29.175672223611038	
1.5816810319126892E12	2.0	2.2615384615384615	442.17687074829934	1442.4908424908424	100.22586035896774	29.175672223611038	
1.5816810319322205E12	2.0	2.2615384615384615	442.17687074829934	1446.153846153846	100.23127959318174	29.175672223611038	
1.5816810319517517E12	2.0	2.263003663003663	441.89057947555847	1448.3516483516482	100.22586035896774	29.175672223611038	
1.581681031971283E12	2.0	2.268864468864469	440.7491120439135	1452.7472527472526	100.22315074565235	29.175672223611038	
1.5816810319908142E12	2.0	2.265934065934066	441.31910766246364	1459.3406593406592	100.23127959318174	29.175672223611038	
1.5816810320103455E12	2.0	2.2673992673992673	441.03392568659126	1458.6080586080584	100.22856997481088	29.175672223611038	
1.5816810320298767E12	2.0	2.2673992673992673	441.03392568659126	1459.3406593406592	100.22856997481088	29.175672223611038	
1.581681032049408E12	2.0	2.2673992673992673	441.03392568659126	1459.3406593406592	100.22586035896774	29.175672223611038	
1.5816810320689392E12	2.0	2.268864468864469	440.7491120439135	1459.3406593406592	100.23127959318174	29.175672223611038	
1.5816810320884705E12	2.0	2.268864468864469	440.7491120439135	1463.003663003663	100.22586035896774	29.175672223611038	
1.5816810321080017E12	2.0	2.2703296703296703	440.4646660212972	1464.4688644688645	100.22586035896774	29.175672223611038	
1.581681032127533E12	2.0	2.2717948717948717	440.1805869074492	1463.7362637362637	100.2204411348647	29.175672223611038	
1.5816810321470642E12	2.0	2.273260073260073	439.8968739929101	1465.9340659340658	100.2204411348647	29.175672223611038	
1.5816810321665955E12	2.0	2.2747252747252746	439.61352657004835	1468.131868131868	100.22586035896774	29.175672223611038	
1.5816810321861267E12	2.0	2.273260073260073	439.8968739929101	1472.5274725274724	100.22586035896774	29.175672223611038	
1.581681032205658E12	2.0	2.2747252747252746	439.61352657004835	1471.062271062271	100.22586035896774	29.175672223611038	
1.5816810322251892E12	2.0	2.2761904761904765	439.3305439330544	1473.9926739926739	100.22586035896774	29.175672223611038	
1.5816810322447205E12	2.0	2.2761904761904765	439.3305439330544	1473.260073260073	100.22586035896774	29.175672223611038	
1.5816810322642517E12	2.0	2.2747252747252746	439.61352657004835	1473.260073260073	100.22315074565235	29.175672223611038	
1.581681032283783E12	2.0	2.2747252747252746	439.61352657004835	1474.7252747252746	100.22586035896774	29.175672223611038	
1.5816810323033142E12	2.0	2.2747252747252746	439.61352657004835	1475.4578754578754	100.22856997481088	29.175672223611038	
1.5816810323228455E12	2.0	2.2747252747252746	439.61352657004835	1476.1904761904761	100.22315074565235	29.175672223611038	
1.5816810323423767E12	2.0	2.2747252747252746	439.61352657004835	1476.1904761904761	100.22856997481088	29.175672223611038	
1.581681032361908E12	2.0	2.2747252747252746	439.61352657004835	1476.1904761904761	100.23127959318174	29.175672223611038	
1.5816810323814392E12	2.0	2.2761904761904765	439.3305439330544	1476.1904761904761	100.22315074565235	29.175672223611038	
1.5816810324009705E12	2.0	2.273260073260073	439.8968739929101	1473.9926739926739	100.22586035896774	29.175672223611038	
1.5816810324205017E12	2.0	2.2747252747252746	439.61352657004835	1471.7948717948716	100.22856997481088	29.175672223611038	
1.581681032440033E12	2.0	2.2761904761904765	439.3305439330544	1473.9926739926739	100.22586035896774	29.175672223611038	
1.5816810324595642E12	2.0	2.2761904761904765	439.3305439330544	1473.260073260073	100.22856997481088	29.175672223611038	
1.5816810324790955E12	2.0	2.2776556776556776	439.04792537793503	1472.5274725274724	100.22315074565235	29.175672223611038	
1.5816810324986267E12	2.0	2.279120879120879	438.76567020250724	1475.4578754578754	100.22586035896774	29.175672223611038	
1.581681032518158E12	2.0	2.279120879120879	438.76567020250724	1477.6556776556777	100.23127959318174	29.175672223611038	
1.5816810325376892E12	2.0	2.2805860805860805	438.4837777063926	1479.120879120879	100.22586035896774	29.175672223611038	
1.5816810325572205E12	2.0	2.2805860805860805	438.4837777063926	1482.7838827838827	100.22315074565235	29.175672223611038	
1.5816810325767517E12	2.0	2.2805860805860805	438.4837777063926	1484.2490842490843	100.23398921408034	29.175672223611038	
1.581681032596283E12	2.0	2.2805860805860805	438.4837777063926	1484.9816849816848	100.22856997481088	29.175672223611038	
1.5816810326158142E12	2.0	2.282051282051282	438.2022471910113	1485.7142857142856	100.22586035896774	29.175672223611038	
1.5816810326353455E12	2.0	2.2864468864468863	437.35982057033004	1485.7142857142856	100.22586035896774	29.175672223611038	
1.5816810326548767E12	2.0	2.283516483516483	437.92107795957656	1493.040293040293	100.22586035896774	29.175672223611038	
1.581681032674408E12	2.0	2.2864468864468863	437.35982057033004	1492.3076923076922	100.22667389840291	29.18059891248122	
1.5816810326939392E12	2.0	2.292307692307692	436.2416107382551	1495.970695970696	100.22667389840291	29.18059891248122	
1.5816810327134705E12	2.0	2.295238095238095	435.6846473029046	1503.2967032967033	100.22667389840291	29.18059891248122	
1.5816810327330017E12	2.0	2.295238095238095	435.6846473029046	1507.6923076923076	100.2293835359024	29.18059891248122	
1.581681032752533E12	2.0	2.2967032967032965	435.40669856459334	1509.89010989011	100.22667389840291	29.18059891248122	
1.5816810327720642E12	2.0	2.298168498168498	435.1291042397195	1512.087912087912	100.2212546309873	29.18059891248122	
1.5816810327915955E12	2.0	2.299633699633699	434.8518636508443	1516.4835164835163	100.22667389840291	29.18059891248122	
1.5816810328111267E12	2.0	2.299633699633699	434.8518636508443	1517.216117216117	100.2212546309873	29.18059891248122	
1.581681032830658E12	2.0	2.299633699633699	434.8518636508443	1516.4835164835163	100.22667389840291	29.18059891248122	
1.5816810328501892E12	2.0	2.301098901098901	434.5749761222541	1517.216117216117	100.2212546309873	29.18059891248122	
1.5816810328697205E12	2.0	2.3025641025641024	434.2984409799555	1520.14652014652	100.22667389840291	29.18059891248122	
1.5816810328892517E12	2.0	2.3025641025641024	434.2984409799555	1522.3443223443223	100.22667389840291	29.18059891248122	
1.581681032908783E12	2.0	2.3025641025641024	434.2984409799555	1523.8095238095236	100.2212546309873	29.18059891248122	
1.5816810329283142E12	2.0	2.304029304029304	434.0222575516693	1523.8095238095236	100.22667389840291	29.18059891248122	
1.5816810329478455E12	2.0	2.304029304029304	434.0222575516693	1527.4725274725274	100.22667389840291	29.18059891248122	
1.5816810329673767E12	2.0	2.304029304029304	434.0222575516693	1528.937728937729	100.2239642634312	29.18059891248122	
1.581681032986908E12	2.0	2.3054945054945053	433.7464251668256	1530.4029304029302	100.2212546309873	29.18059891248122	
1.5816810330064392E12	2.0	2.3084249084249087	433.19581085369725	1528.937728937729	100.2239642634312	29.18059891248122	
1.5816810330259705E12	2.0	2.3098901098901097	432.92102759276884	1532.6007326007325	100.22667389840291	29.18059891248122	
1.5816810330455017E12	2.0	2.3054945054945053	433.7464251668256	1537.7289377289376	100.22667389840291	29.18059891248122	
1.581681033065033E12	2.0	2.299633699633699	434.8518636508443	1532.6007326007325	100.22667389840291	29.18059891248122	
1.5816810330845642E12	2.0	2.298168498168498	435.1291042397195	1524.5421245421244	100.2239642634312	29.18059891248122	
1.5816810331040955E12	2.0	2.295238095238095	435.6846473029046	1523.0769230769229	100.22667389840291	29.18059891248122	
1.5816810331236267E12	2.0	2.292307692307692	436.2416107382551	1517.216117216117	100.22667389840291	29.18059891248122	
1.581681033143158E12	2.0	2.2908424908424907	436.52062679884875	1514.2857142857142	100.22667389840291	29.18059891248122	
1.5816810331626892E12	2.0	2.284981684981685	437.64026931708884	1508.4249084249084	100.22667389840291	29.18059891248122	
1.5816810331822205E12	2.0	2.282051282051282	438.2022471910113	1500.3663003663003	100.2212546309873	29.18059891248122	
1.5816810332017517E12	2.0	2.282051282051282	438.2022471910113	1493.040293040293	100.2239642634312	29.18059891248122	
1.581681033221283E12	2.0	2.282051282051282	438.2022471910113	1488.6446886446886	100.22667389840291	29.18059891248122	
1.5816810332408142E12	2.0	2.2864468864468863	437.35982057033004	1487.179487179487	100.22667389840291	29.18059891248122	
1.5816810332603455E12	2.0	2.2879120879120878	437.07973102785786	1493.040293040293	100.22667389840291	29.18059891248122	
1.5816810332798767E12	2.0	2.2864468864468863	437.35982057033004	1494.5054945054944	100.2293835359024	29.18059891248122	
1.581681033299408E12	2.0	2.2864468864468863	437.35982057033004	1496.7032967032967	100.22667389840291	29.18059891248122	
1.5816810333189392E12	2.0	2.2864468864468863	437.35982057033004	1498.168498168498	100.22667389840291	29.18059891248122	
1.5816810333384705E12	2.0	2.2864468864468863	437.35982057033004	1498.168498168498	100.21854500107115	29.18059891248122	
1.5816810333580017E12	2.0	2.284981684981685	437.64026931708884	1498.9010989010987	100.2239642634312	29.18059891248122	
1.581681033377533E12	2.0	2.282051282051282	438.2022471910113	1495.2380952380952	100.2212546309873	29.18059891248122	
1.5816810333970642E12	2.0	2.2776556776556776	439.04792537793503	1490.10989010989	100.2212546309873	29.18059891248122	
1.5816810334165955E12	2.0	2.2761904761904765	439.3305439330544	1484.2490842490843	100.22667389840291	29.18059891248122	
1.5816810334361267E12	2.0	2.273260073260073	439.8968739929101	1478.3882783882782	100.2293835359024	29.18059891248122	
1.581681033455658E12	2.0	2.2717948717948717	440.1805869074492	1473.9926739926739	100.2239642634312	29.18059891248122	
1.5816810334751892E12	2.0	2.2717948717948717	440.1805869074492	1471.7948717948716	100.2239642634312	29.18059891248122	
1.5816810334947205E12	2.0	2.2717948717948717	440.1805869074492	1470.3296703296703	100.22667389840291	29.18059891248122	
1.5816810335142517E12	2.0	2.2717948717948717	440.1805869074492	1469.5970695970695	100.2239642634312	29.18059891248122	
1.581681033533783E12	2.0	2.273260073260073	439.8968739929101	1468.8644688644688	100.23209317592963	29.18059891248122	
1.5816810335533142E12	2.0	2.273260073260073	439.8968739929101	1468.8644688644688	100.22667389840291	29.18059891248122	
1.5816810335728455E12	2.0	2.2761904761904765	439.3305439330544	1515.7509157509157	100.2293835359024	29.18059891248122	
1.5816810335923767E12	2.0	2.279120879120879	438.76567020250724	1493.7728937728937	100.2293835359024	29.18059891248122	
1.581681033611908E12	2.0	2.2805860805860805	438.4837777063926	1487.179487179487	100.2212546309873	29.18059891248122	
1.5816810336314392E12	2.0	2.283516483516483	437.92107795957656	1487.179487179487	100.22667389840291	29.18059891248122	
1.5816810336509705E12	2.0	2.2864468864468863	437.35982057033004	1489.3772893772893	100.22667389840291	29.18059891248122	
1.5816810336705017E12	2.0	2.2893772893772897	436.8	1494.5054945054944	100.22911453270656	29.195378980837994	
1.581681033690033E12	2.0	2.2908424908424907	436.52062679884875	1498.168498168498	100.22911453270656	29.195378980837994	
1.5816810337095642E12	2.0	2.2937728937728936	435.9629511338231	1501.098901098901	100.22098544046756	29.195378980837994	
1.5816810337290955E12	2.0	2.2967032967032965	435.40669856459334	1503.2967032967033	100.22911453270656	29.195378980837994	
1.5816810337486267E12	2.0	2.299633699633699	434.8518636508443	1509.1575091575091	100.22911453270656	29.195378980837994	
1.581681033768158E12	2.0	2.301098901098901	434.5749761222541	1512.8205128205127	100.22369513535267	29.195378980837994	
1.5816810337876892E12	2.0	2.304029304029304	434.0222575516693	1517.9487179487178	100.22640483276567	29.195378980837994	
1.5816810338072205E12	2.0	2.3054945054945053	433.7464251668256	1524.5421245421244	100.23182423517537	29.195378980837994	
1.5816810338267517E12	2.0	2.3069597069597068	433.47094315655767	1526.7399267399267	100.22911453270656	29.195378980837994	
1.581681033846283E12	2.0	2.3084249084249087	433.19581085369725	1530.4029304029302	100.22640483276567	29.195378980837994	
1.5816810338658142E12	2.0	2.3098901098901097	432.92102759276884	1533.3333333333333	100.22911453270656	29.195378980837994	
1.5816810338853455E12	2.0	2.311355311355311	432.6465927099842	1537.7289377289376	100.22369513535267	29.195378980837994	
1.5816810339048767E12	2.0	2.312820512820512	432.3725055432373	1538.4615384615383	100.22369513535267	29.195378980837994	
1.581681033924408E12	2.0	2.312820512820512	432.3725055432373	1541.3919413919414	100.22911453270656	29.195378980837994	
1.5816810339439392E12	2.0	2.312820512820512	432.3725055432373	1543.5897435897434	100.22640483276567	29.195378980837994	
1.5816810339634705E12	2.0	2.312820512820512	432.3725055432373	1544.3223443223442	100.22640483276567	29.195378980837994	
1.5816810339830017E12	2.0	2.312820512820512	432.3725055432373	1544.3223443223442	100.22098544046756	29.195378980837994	
1.581681034002533E12	2.0	2.315750915750916	431.82537171781075	1545.054945054945	100.22369513535267	29.195378980837994	
1.5816810340220642E12	2.0	2.3172161172161174	431.55232374328165	1548.7179487179485	100.22369513535267	29.195378980837994	
1.5816810340415955E12	2.0	2.3172161172161174	431.55232374328165	1549.4505494505493	100.22640483276567	29.195378980837994	
1.5816810340611267E12	2.0	2.318681318681319	431.27962085308053	1549.4505494505493	100.22369513535267	29.195378980837994	
1.581681034080658E12	2.0	2.3201465201465203	431.00726239343226	1553.113553113553	100.22640483276567	29.195378980837994	
1.5816810341001892E12	2.0	2.3201465201465203	431.00726239343226	1555.311355311355	100.22640483276567	29.195378980837994	
1.5816810341197205E12	2.0	2.3201465201465203	431.00726239343226	1556.7765567765566	100.22369513535267	29.195378980837994	
1.5816810341392517E12	2.0	2.3201465201465203	431.00726239343226	1556.7765567765566	100.22640483276567	29.195378980837994	
1.581681034158783E12	2.0	2.321611721611722	430.735247712212	1557.5091575091574	100.22640483276567	29.195378980837994	
1.5816810341783142E12	2.0	2.323076923076923	430.4635761589404	1560.4395604395604	100.22098544046756	29.195378980837994	
1.5816810341978455E12	2.0	2.3245421245421247	430.19224708477776	1560.4395604395604	100.23182423517537	29.195378980837994	
1.5816810342173767E12	2.0	2.3274725274725276	429.65061378659107	1564.102564102564	100.22369513535267	29.195378980837994	
1.581681034236908E12	2.0	2.328937728937729	429.3803082730418	1569.9633699633698	100.22911453270656	29.195378980837994	
1.5816810342564392E12	2.0	2.328937728937729	429.3803082730418	1570.6959706959706	100.22911453270656	29.195378980837994	
1.5816810342759705E12	2.0	2.3304029304029306	429.110342659541	1571.4285714285713	100.22098544046756	29.195378980837994	
1.5816810342955017E12	2.0	2.331868131868132	428.84071630537227	1575.091575091575	100.22640483276567	29.195378980837994	
1.581681034315033E12	2.0	2.3333333333333335	428.57142857142856	1578.021978021978	100.23182423517537	29.195378980837994	
1.5816810343345642E12	2.0	2.3333333333333335	428.57142857142856	1582.4175824175823	100.22911453270656	29.195378980837994	
1.5816810343540955E12	2.0	2.331868131868132	428.84071630537227	1583.8827838827838	100.22640483276567	29.195378980837994	
1.5816810343736267E12	2.0	2.3333333333333335	428.57142857142856	1582.4175824175823	100.21827574811034	29.195378980837994	
1.581681034393158E12	2.0	2.3333333333333335	428.57142857142856	1583.8827838827838	100.22369513535267	29.195378980837994	
1.5816810344126892E12	2.0	2.334798534798535	428.30247882020706	1585.3479853479853	100.22640483276567	29.195378980837994	
1.5816810344322205E12	2.0	2.3362637362637364	428.0338664158043	1583.8827838827838	100.23182423517537	29.195378980837994	
1.5816810344517517E12	2.0	2.337728937728938	427.765590723911	1586.8131868131868	100.22369513535267	29.195378980837994	
1.581681034471283E12	2.0	2.337728937728938	427.765590723911	1588.278388278388	100.22640483276567	29.195378980837994	
1.5816810344908142E12	2.0	2.337728937728938	427.765590723911	1589.7435897435896	100.22098544046756	29.195378980837994	
1.5816810345103455E12	2.0	2.3391941391941393	427.49765111180704	1589.7435897435896	100.22640483276567	29.195378980837994	
1.5816810345298767E12	2.0	2.3435897435897437	426.69584245076584	1592.6739926739926	100.22911453270656	29.195378980837994	
1.581681034549408E12	2.0	2.340659340659341	427.2300469483568	1597.8021978021977	100.22369513535267	29.195378980837994	
1.5816810345689392E12	2.0	2.340659340659341	427.2300469483568	1596.3369963369962	100.22911453270656	29.195378980837994	
1.5816810345884705E12	2.0	2.3435897435897437	426.69584245076584	1594.8717948717947	100.23182423517537	29.195378980837994	
1.5816810346080017E12	2.0	2.3435897435897437	426.69584245076584	1599.2673992673992	100.22911453270656	29.195378980837994	
1.581681034627533E12	2.0	2.3450549450549456	426.42924086223053	1600.7326007326005	100.22911453270656	29.195378980837994	
1.5816810346470642E12	2.0	2.3465201465201466	426.1629722135498	1604.3956043956043	100.22911453270656	29.195378980837994	
1.5816810346665955E12	2.0	2.3450549450549456	426.42924086223053	1605.128205128205	100.23074163557207	29.205232361197705	
1.5816810346861267E12	2.0	2.3465201465201466	426.1629722135498	1607.3260073260071	100.22803189231814	29.205232361197705	
1.581681034705658E12	2.0	2.3479853479853485	425.8970358814352	1607.3260073260071	100.23345138135399	29.205232361197705	
1.5816810347251892E12	2.0	2.3479853479853485	425.8970358814352	1610.2564102564102	100.23074163557207	29.205232361197705	
1.5816810347447205E12	2.0	2.3479853479853485	425.8970358814352	1612.4542124542124	100.22803189231814	29.205232361197705	
1.5816810347642517E12	2.0	2.3479853479853485	425.8970358814352	1612.4542124542124	100.23074163557207	29.205232361197705	
1.581681034783783E12	2.0	2.3479853479853485	425.8970358814352	1612.4542124542124	100.23074163557207	29.205232361197705	
1.5816810348033142E12	2.0	2.3494505494505495	425.6314312441534	1612.4542124542124	100.23074163557207	29.205232361197705	
1.5816810348228455E12	2.0	2.3494505494505495	425.6314312441534	1614.6520146520145	100.23074163557207	29.205232361197705	
1.5816810348423767E12	2.0	2.350915750915751	425.3661576815207	1614.6520146520145	100.23345138135399	29.205232361197705	
1.581681034861908E12	2.0	2.3494505494505495	425.6314312441534	1617.5824175824175	100.23616112966387	29.205232361197705	
1.5816810348814392E12	2.0	2.350915750915751	425.3661576815207	1616.117216117216	100.23074163557207	29.205232361197705	
1.5816810349009705E12	2.0	2.350915750915751	425.3661576815207	1618.3150183150183	100.23074163557207	29.205232361197705	
1.5816810349205017E12	2.0	2.352380952380952	425.1012145748988	1620.5128205128203	100.23074163557207	29.205232361197705	
1.581681034940033E12	2.0	2.350915750915751	425.3661576815207	1619.047619047619	100.22803189231814	29.205232361197705	
1.5816810349595642E12	2.0	2.352380952380952	425.1012145748988	1620.5128205128203	100.22803189231814	29.205232361197705	
1.5816810349790955E12	2.0	2.350915750915751	425.3661576815207	1618.3150183150183	100.23074163557207	29.205232361197705	
1.5816810349986267E12	2.0	2.355311355311355	424.5723172628305	1620.5128205128203	100.22803189231814	29.205232361197705	
1.581681035018158E12	2.0	2.350915750915751	425.3661576815207	1622.7106227106226	100.23074163557207	29.205232361197705	
1.5816810350376892E12	2.0	2.352380952380952	425.1012145748988	1621.9780219780218	100.23345138135399	29.205232361197705	
1.5816810350572205E12	2.0	2.350915750915751	425.3661576815207	1619.047619047619	100.23074163557207	29.205232361197705	
1.5816810350767517E12	2.0	2.350915750915751	425.3661576815207	1620.5128205128203	100.23345138135399	29.205232361197705	
1.581681035096283E12	2.0	2.3494505494505495	425.6314312441534	1620.5128205128203	100.23074163557207	29.205232361197705	
1.5816810351158142E12	2.0	2.350915750915751	425.3661576815207	1617.5824175824175	100.23074163557207	29.205232361197705	
1.5816810351353455E12	2.0	2.350915750915751	425.3661576815207	1619.7802197802196	100.23074163557207	29.205232361197705	
1.5816810351548767E12	2.0	2.350915750915751	425.3661576815207	1620.5128205128203	100.23074163557207	29.205232361197705	
1.581681035174408E12	2.0	2.3494505494505495	425.6314312441534	1620.5128205128203	100.22803189231814	29.205232361197705	
1.5816810351939392E12	2.0	2.3494505494505495	425.6314312441534	1618.3150183150183	100.22803189231814	29.205232361197705	
1.5816810352134705E12	2.0	2.3450549450549456	426.42924086223053	1616.8498168498168	100.2253221515922	29.205232361197705	
1.5816810352330017E12	2.0	2.3479853479853485	425.8970358814352	1612.4542124542124	100.2226124133942	29.205232361197705	
1.581681035252533E12	2.0	2.3479853479853485	425.8970358814352	1613.186813186813	100.23074163557207	29.205232361197705	
1.5816810352720642E12	2.0	2.3465201465201466	426.1629722135498	1613.186813186813	100.2253221515922	29.205232361197705	
1.5816810352915955E12	2.0	2.3479853479853485	425.8970358814352	1610.2564102564102	100.23074163557207	29.205232361197705	
1.5816810353111267E12	2.0	2.3465201465201466	426.1629722135498	1611.7216117216117	100.22803189231814	29.205232361197705	
1.581681035330658E12	2.0	2.3450549450549456	426.42924086223053	1608.7912087912086	100.22803189231814	29.205232361197705	
1.5816810353501892E12	2.0	2.3450549450549456	426.42924086223053	1609.5238095238094	100.23074163557207	29.205232361197705	
1.5816810353697205E12	2.0	2.3450549450549456	426.42924086223053	1609.5238095238094	100.23345138135399	29.205232361197705	
1.5816810353892517E12	2.0	2.3435897435897437	426.69584245076584	1609.5238095238094	100.22803189231814	29.205232361197705	
1.581681035408783E12	2.0	2.3435897435897437	426.69584245076584	1606.5934065934066	100.23074163557207	29.205232361197705	
1.5816810354283142E12	2.0	2.3435897435897437	426.69584245076584	1604.3956043956043	100.23074163557207	29.205232361197705	
1.5816810354478455E12	2.0	2.342124542124542	426.96277760400375	1604.3956043956043	100.22803189231814	29.205232361197705	
1.5816810354673767E12	2.0	2.3435897435897437	426.69584245076584	1602.9304029304028	100.22803189231814	29.205232361197705	
1.581681035486908E12	2.0	2.342124542124542	426.96277760400375	1602.9304029304028	100.22803189231814	29.205232361197705	
1.5816810355064392E12	2.0	2.342124542124542	426.96277760400375	1602.197802197802	100.23345138135399	29.205232361197705	
1.5816810355259705E12	2.0	2.340659340659341	427.2300469483568	1602.197802197802	100.2253221515922	29.205232361197705	
1.5816810355455017E12	2.0	2.340659340659341	427.2300469483568	1599.2673992673992	100.2253221515922	29.205232361197705	
1.581681035565033E12	2.0	2.3391941391941393	427.49765111180704	1597.069597069597	100.2253221515922	29.205232361197705	
1.5816810355845642E12	2.0	2.3391941391941393	427.49765111180704	1597.8021978021977	100.22803189231814	29.205232361197705	
1.5816810356040955E12	2.0	2.337728937728938	427.765590723911	1597.8021978021977	100.23074163557207	29.205232361197705	
1.5816810356236267E12	2.0	2.3362637362637364	428.0338664158043	1594.8717948717947	100.2253221515922	29.205232361197705	
1.581681035643158E12	2.0	2.3362637362637364	428.0338664158043	1592.6739926739926	100.23345138135399	29.205232361197705	
1.5816810356626892E12	2.0	2.3362637362637364	428.0338664158043	1591.2087912087911	100.23426495844168	29.210159051814117	
1.5816810356822205E12	2.0	2.334798534798535	428.30247882020706	1590.4761904761904	100.22884542609263	29.210159051814117	
1.5816810357017517E12	2.0	2.334798534798535	428.30247882020706	1587.5457875457873	100.22884542609263	29.210159051814117	
1.581681035721283E12	2.0	2.334798534798535	428.30247882020706	1584.6153846153845	100.23426495844168	29.210159051814117	
1.5816810357408142E12	2.0	2.3333333333333335	428.57142857142856	1584.6153846153845	100.22884542609263	29.210159051814117	
1.5816810357603455E12	2.0	2.3333333333333335	428.57142857142856	1585.3479853479853	100.23155519100317	29.210159051814117	
1.5816810357798767E12	2.0	2.331868131868132	428.84071630537227	1586.080586080586	100.23155519100317	29.210159051814117	
1.581681035799408E12	2.0	2.331868131868132	428.84071630537227	1583.150183150183	100.23697472840824	29.210159051814117	
1.5816810358189392E12	2.0	2.331868131868132	428.84071630537227	1581.6849816849815	100.23426495844168	29.210159051814117	
1.5816810358384705E12	2.0	2.3304029304029306	429.110342659541	1580.2197802197802	100.23155519100317	29.210159051814117	
1.5816810358580017E12	2.0	2.328937728937729	429.3803082730418	1579.4871794871794	100.23426495844168	29.210159051814117	
1.581681035877533E12	2.0	2.328937728937729	429.3803082730418	1575.8241758241757	100.23426495844168	29.210159051814117	
1.5816810358970642E12	2.0	2.3274725274725276	429.65061378659107	1573.6263736263736	100.23426495844168	29.210159051814117	
1.5816810359165955E12	2.0	2.3274725274725276	429.65061378659107	1575.091575091575	100.23155519100317	29.210159051814117	
1.5816810359361267E12	2.0	2.326007326007326	429.92125984251965	1575.091575091575	100.22884542609263	29.210159051814117	
1.581681035955658E12	2.0	2.3245421245421247	430.19224708477776	1572.161172161172	100.23697472840824	29.210159051814117	
1.5816810359751892E12	2.0	2.3245421245421247	430.19224708477776	1570.6959706959706	100.22613566371012	29.210159051814117	
1.5816810359947205E12	2.0	2.323076923076923	430.4635761589404	1569.230769230769	100.22884542609263	29.210159051814117	
1.5816810360142517E12	2.0	2.323076923076923	430.4635761589404	1564.8351648351647	100.22884542609263	29.210159051814117	
1.581681036033783E12	2.0	2.321611721611722	430.735247712212	1563.3699633699632	100.23155519100317	29.210159051814117	
1.5816810360533142E12	2.0	2.321611721611722	430.735247712212	1564.102564102564	100.23155519100317	29.210159051814117	
1.5816810360728455E12	2.0	2.3201465201465203	431.00726239343226	1564.8351648351647	100.23155519100317	29.210159051814117	
1.5816810360923767E12	2.0	2.3201465201465203	431.00726239343226	1561.9047619047617	100.22884542609263	29.210159051814117	
1.581681036111908E12	2.0	2.3201465201465203	431.00726239343226	1560.4395604395604	100.23155519100317	29.210159051814117	
1.5816810361314392E12	2.0	2.318681318681319	431.27962085308053	1559.7069597069597	100.22884542609263	29.210159051814117	
1.5816810361509705E12	2.0	2.3172161172161174	431.55232374328165	1558.2417582417581	100.23426495844168	29.210159051814117	
1.5816810361705017E12	2.0	2.315750915750916	431.82537171781075	1554.5787545787546	100.22884542609263	29.210159051814117	
1.581681036190033E12	2.0	2.315750915750916	431.82537171781075	1554.5787545787546	100.22884542609263	29.210159051814117	
1.5816810362095642E12	2.0	2.315750915750916	431.82537171781075	1554.5787545787546	100.22884542609263	29.210159051814117	
1.5816810362290955E12	2.0	2.3142857142857145	432.09876543209873	1553.8461538461538	100.22613566371012	29.210159051814117	
1.5816810362486267E12	2.0	2.3142857142857145	432.09876543209873	1550.9157509157508	100.22884542609263	29.210159051814117	
1.581681036268158E12	2.0	2.312820512820512	432.3725055432373	1549.4505494505493	100.22342590385564	29.210159051814117	
1.5816810362876892E12	2.0	2.311355311355311	432.6465927099842	1547.2527472527472	100.22613566371012	29.210159051814117	
1.5816810363072205E12	2.0	2.311355311355311	432.6465927099842	1543.5897435897434	100.23155519100317	29.210159051814117	
