"sep=	"
Shimmer_5DF7_Timestamp_Unix_CAL	Shimmer_5DF7_GSR_Range_CAL	Shimmer_5DF7_GSR_Skin_Conductance_CAL	Shimmer_5DF7_GSR_Skin_Resistance_CAL	Shimmer_5DF7_PPG_A13_CAL	Shimmer_5DF7_Pressure_BMP280_CAL	Shimmer_5DF7_Temperature_BMP280_CAL	
ms	no_units	uS	kOhms	mV	kPa	Degrees Celsius	
1.5796023619300537E12	0.0	78.01651085233175	12.81779957953749	1092.3076923076922	101.50552094116557	25.88470908967429	
1.579602361949585E12	0.0	78.01651085233175	12.81779957953749	1101.098901098901	101.50282409243	25.88470908967429	
1.5796023619691162E12	0.0	11.317041167787433	88.36231884057973	1101.098901098901	101.5001272461962	25.88470908967429	
1.5796023619886475E12	0.0	11.317041167787433	88.36231884057973	1119.4139194139193	101.50552094116557	25.88470908967429	
1.5796023620081787E12	0.0	11.317041167787433	88.36231884057973	1378.021978021978	101.5001272461962	25.88470908967429	
1.57960236202771E12	0.0	11.317041167787433	88.36231884057973	1529.6703296703295	101.49743040246419	25.88470908967429	
1.5796023620472412E12	0.0	11.317041167787433	88.36231884057973	1648.3516483516482	101.50282409243	25.88470908967429	
1.5796023620667725E12	1.0	11.351482431621804	88.09422082302676	1717.216117216117	101.49743040246419	25.88470908967429	
1.5796023620863037E12	1.0	11.346377200035738	88.13385826771653	1753.113553113553	101.5001272461962	25.88470908967429	
1.579602362105835E12	1.0	11.34127196844967	88.17353139770425	1770.6959706959706	101.49743040246419	25.88470908967429	
1.5796023621253662E12	1.0	11.336166736863602	88.21324026120243	1780.2197802197802	101.49473356123396	25.88470908967429	
1.5796023621448975E12	1.0	11.346377200035738	88.13385826771653	1790.4761904761904	101.5001272461962	25.88470908967429	
1.5796023621644287E12	1.0	11.331061505277534	88.25298490651048	1793.4065934065932	101.5001272461962	25.88470908967429	
1.57960236218396E12	1.0	11.336166736863602	88.21324026120243	1790.4761904761904	101.49743040246419	25.88470908967429	
1.5796023622034912E12	1.0	11.3208510421054	88.3325817361894	1791.2087912087911	101.49473356123396	25.88470908967429	
1.5796023622230225E12	1.0	11.31574581051933	88.37243401759531	1773.6263736263736	101.5001272461962	25.88470908967429	
1.5796023622425537E12	1.0	11.31574581051933	88.37243401759531	1770.6959706959706	101.49473356123396	25.88470908967429	
1.579602362262085E12	1.0	11.310640578933262	88.41232227488152	1778.021978021978	101.49203672250549	25.88470908967429	
1.5796023622816162E12	1.0	11.305535347347195	88.45224655678483	1769.9633699633698	101.49473356123396	25.88470908967429	
1.5796023623011475E12	1.0	11.300430115761126	88.49220691213011	1767.7655677655675	101.5001272461962	25.88470908967429	
1.5796023623206787E12	1.0	11.290219652588991	88.57223603888764	1763.3699633699632	101.50282409243	25.88470908967429	
1.57960236234021E12	1.0	11.285114421002922	88.61230490839176	1763.3699633699632	101.50552094116557	25.88470908967429	
1.5796023623597412E12	1.0	11.280009189416853	88.65241004752207	1758.974358974359	101.49743040246419	25.88470908967429	
1.5796023623792725E12	1.0	11.274903957830787	88.69255150554675	1671.0622710622708	101.49473356123396	25.88470908967429	
1.5796023623988037E12	1.0	11.274903957830787	88.69255150554675	1501.098901098901	101.49473356123396	25.88470908967429	
1.579602362418335E12	1.0	11.26979872624472	88.73272933182332	1577.2893772893772	101.49203672250549	25.88470908967429	
1.5796023624378662E12	1.0	11.264693494658651	88.77294357579878	1653.4798534798533	101.49473356123396	25.88470908967429	
1.5796023624573975E12	1.0	11.259588263072583	88.81319428700975	1694.5054945054944	101.4893398862788	25.88470908967429	
1.5796023624769287E12	1.0	11.259588263072583	88.81319428700975	1714.2857142857142	101.49203672250549	25.88470908967429	
1.57960236249646E12	1.0	11.254483031486517	88.85348151508278	1729.6703296703295	101.49203672250549	25.88470908967429	
1.5796023625159912E12	1.0	11.244272568314381	88.93416572077184	1745.7875457875457	101.49473356123396	25.88470908967429	
1.5796023625355225E12	1.0	11.239167336728313	88.97456279809221	1764.8351648351647	101.49473356123396	25.88470908967429	
1.5796023625550537E12	1.0	11.234062105142243	89.01499659168371	1833.6996336996335	101.4893398862788	25.88470908967429	
1.579602362574585E12	1.0	11.234062105142243	89.01499659168371	1921.6117216117216	101.49203672250549	25.88470908967429	
1.5796023625941162E12	1.0	11.228956873556177	89.05546715162536	1787.5457875457873	101.49473356123396	25.88470908967429	
1.5796023626136475E12	1.0	11.228956873556177	89.05546715162536	1696.7032967032967	101.49203672250549	25.88470908967429	
1.5796023626331787E12	1.0	11.228956873556177	89.05546715162536	1735.5311355311353	101.49473356123396	25.88470908967429	
1.57960236265271E12	1.0	11.228956873556177	89.05546715162536	1767.7655677655675	101.49473356123396	25.88470908967429	
1.5796023626722412E12	1.0	11.228956873556177	89.05546715162536	1758.2417582417581	101.48664305255389	25.88470908967429	
1.5796023626917725E12	1.0	11.228956873556177	89.05546715162536	1738.4615384615383	101.49203672250549	25.88470908967429	
1.5796023627113037E12	1.0	11.228956873556177	89.05546715162536	1726.007326007326	101.49743040246419	25.88470908967429	
1.579602362730835E12	1.0	11.228956873556177	89.05546715162536	1726.007326007326	101.4893398862788	25.88470908967429	
1.5796023627503662E12	1.0	11.228956873556177	89.05546715162536	1731.135531135531	101.49473356123396	25.88470908967429	
1.5796023627698975E12	1.0	11.239167336728313	88.97456279809221	1731.135531135531	101.49473356123396	25.88470908967429	
1.5796023627894287E12	1.0	11.239167336728313	88.97456279809221	1727.4725274725274	101.49473356123396	25.88470908967429	
1.57960236280896E12	1.0	11.244272568314381	88.93416572077184	1728.2051282051282	101.49203672250549	25.88470908967429	
1.5796023628284912E12	1.0	11.254483031486517	88.85348151508278	1742.124542124542	101.48394622133075	25.88470908967429	
1.5796023628480225E12	1.0	11.259588263072583	88.81319428700975	1769.9633699633698	101.92303446254303	28.50071859958116	
1.5796023628675537E12	1.0	11.26979872624472	88.73272933182332	1764.8351648351647	101.92845113372094	28.50071859958116	
1.579602362887085E12	1.0	11.274903957830787	88.69255150554675	1760.4395604395604	101.92845113372094	28.50071859958116	
1.5796023629066162E12	1.0	11.285114421002922	88.61230490839176	1754.5787545787546	101.92845113372094	28.50071859958116	
1.5796023629261475E12	1.0	11.300430115761126	88.49220691213011	1741.3919413919414	101.9311594730935	28.50071859958116	
1.5796023629456787E12	1.0	11.305535347347195	88.45224655678483	1743.5897435897434	101.92574279687078	28.50071859958116	
1.57960236296521E12	1.0	11.3208510421054	88.3325817361894	1739.9267399267399	101.92845113372094	28.50071859958116	
1.5796023629847412E12	1.0	11.331061505277534	88.25298490651048	1716.4835164835163	101.9311594730935	28.50071859958116	
1.5796023630042725E12	1.0	11.34127196844967	88.17353139770425	1743.5897435897434	101.93386781498846	28.50071859958116	
1.5796023630238037E12	1.0	11.356587663207872	88.0546190155091	1774.3589743589741	101.92845113372094	28.50071859958116	
1.579602363043335E12	1.0	11.366798126380006	87.97552211991916	1801.4652014652013	101.92845113372094	28.50071859958116	
1.5796023630628662E12	1.0	11.38211382113821	87.85714285714286	1814.6520146520145	101.92845113372094	28.50071859958116	
1.5796023630823975E12	1.0	11.397429515896414	87.73908174692049	1812.4542124542124	101.9311594730935	28.50071859958116	
1.5796023631019287E12	1.0	11.412745210654618	87.62133750838738	1812.4542124542124	101.92574279687078	28.50071859958116	
1.57960236312146E12	1.0	11.422955673826753	87.54301675977653	1814.6520146520145	101.92574279687078	28.50071859958116	
1.5796023631409912E12	1.0	11.438271368584957	87.42579781298818	1824.1758241758241	101.92574279687078	28.50071859958116	
1.5796023631605225E12	1.0	11.453587063343162	87.30889235569423	1832.234432234432	101.92574279687078	28.50071859958116	
1.5796023631800537E12	1.0	11.463797526515297	87.2311289245157	1822.7106227106226	101.92845113372094	28.50071859958116	
1.579602363199585E12	1.0	11.4791132212735	87.11474316210807	1831.5018315018315	101.92303446254303	28.50071859958116	
1.5796023632191162E12	1.0	11.494428916031703	86.99866755496336	1852.0146520146518	101.92574279687078	28.50071859958116	
1.5796023632386475E12	1.0	11.504639379203839	86.92145551364544	1868.8644688644688	101.92845113372094	28.50071859958116	
1.5796023632581787E12	1.0	11.514849842375973	86.84438040345822	1873.9926739926739	101.92032613073766	28.50071859958116	
1.57960236327771E12	1.0	11.530165537134177	86.72902368828869	1876.923076923077	101.93386781498846	28.50071859958116	
1.5796023632972412E12	1.0	11.540376000306313	86.6522893165229	1881.3186813186812	101.92845113372094	28.50071859958116	
1.5796023633167725E12	1.0	11.550586463478448	86.57569060773481	1888.6446886446886	101.92845113372094	28.50071859958116	
1.5796023633363037E12	1.0	11.57100738982272	86.42289874255461	1765.5677655677655	101.92845113372094	28.50071859958116	
1.579602363355835E12	1.0	11.57100738982272	86.42289874255461	1717.216117216117	101.92303446254303	28.50071859958116	
1.5796023633753662E12	1.0	11.581217852994856	86.34670487106018	1696.7032967032967	101.92845113372094	28.50071859958116	
1.5796023633948975E12	1.0	11.591428316166992	86.2706452323277	1695.2380952380952	101.92574279687078	28.50071859958116	
1.5796023634144287E12	1.0	11.601638779339128	86.1947194719472	1677.6556776556774	101.92845113372094	28.50071859958116	
1.57960236343396E12	1.0	11.606744010925194	86.15680668572686	1679.8534798534797	101.9311594730935	28.50071859958116	
1.5796023634534912E12	1.0	11.61695447409733	86.0810810810811	1685.7142857142856	101.92845113372094	28.50071859958116	
1.5796023634730225E12	1.0	11.622059705683398	86.04326817482979	1678.3882783882782	101.92845113372094	28.50071859958116	
1.5796023634925537E12	1.0	11.632270168855532	85.96774193548389	1671.7948717948716	101.92303446254303	28.50071859958116	
1.579602363512085E12	1.0	11.637375400441602	85.93002851502523	1660.8058608058607	101.92845113372094	28.50071859958116	
1.5796023635316162E12	1.0	11.642480632027668	85.89234816926114	1651.2820512820513	101.92574279687078	28.50071859958116	
1.5796023635511475E12	1.0	11.647585863613736	85.85470085470087	1660.8058608058607	101.92845113372094	28.50071859958116	
1.5796023635706787E12	1.0	11.647585863613736	85.85470085470087	1670.3296703296703	101.9311594730935	28.50071859958116	
1.57960236359021E12	1.0	11.657796326785872	85.77950514560982	1670.3296703296703	101.92845113372094	28.50071859958116	
1.5796023636097412E12	1.0	11.66290155837194	85.74195666447801	1677.6556776556774	101.9311594730935	28.50071859958116	
1.5796023636292725E12	1.0	11.668006789958008	85.70444104134764	1684.249084249084	101.92574279687078	28.50071859958116	
1.5796023636488037E12	1.0	11.668006789958008	85.70444104134764	1684.9816849816848	101.92845113372094	28.50071859958116	
1.579602363668335E12	1.0	11.673112021544076	85.66695823310738	1684.249084249084	101.92574279687078	28.50071859958116	
1.5796023636878662E12	1.0	11.673112021544076	85.66695823310738	1684.9816849816848	101.92574279687078	28.50071859958116	
1.5796023637073975E12	1.0	11.673112021544076	85.66695823310738	1687.179487179487	101.93386781498846	28.50071859958116	
1.5796023637269287E12	1.0	11.678217253130144	85.62950819672132	1687.9120879120878	101.9311594730935	28.50071859958116	
1.57960236374646E12	1.0	11.678217253130144	85.62950819672132	1691.5750915750914	101.92845113372094	28.50071859958116	
1.5796023637659912E12	1.0	11.678217253130144	85.62950819672132	1691.5750915750914	101.92845113372094	28.50071859958116	
1.5796023637855225E12	1.0	11.683322484716212	85.59209088922876	1692.3076923076922	101.92303446254303	28.50071859958116	
1.5796023638050537E12	1.0	11.683322484716212	85.59209088922876	1696.7032967032967	101.92574279687078	28.50071859958116	
1.579602363824585E12	1.0	11.68842771630228	85.55470626774405	1700.3663003663003	101.92032613073766	28.50071859958116	
1.5796023638441162E12	1.0	11.68842771630228	85.55470626774405	1699.6336996336995	101.92446426481654	28.525351847481215	
1.5796023638636475E12	1.0	11.693532947888347	85.51735428945646	1704.7619047619046	101.92717270500201	28.525351847481215	
1.5796023638831787E12	1.0	11.68842771630228	85.55470626774405	1709.8901098901097	101.93258959294074	28.525351847481215	
1.57960236390271E12	1.0	11.68842771630228	85.55470626774405	1708.4249084249084	101.92446426481654	28.525351847481215	
1.5796023639222412E12	1.0	11.693532947888347	85.51735428945646	1704.0293040293038	101.92988114771006	28.525351847481215	
1.5796023639417725E12	1.0	11.693532947888347	85.51735428945646	1715.018315018315	101.93258959294074	28.525351847481215	
1.5796023639613037E12	1.0	11.693532947888347	85.51735428945646	1706.9597069597069	101.93258959294074	28.525351847481215	
1.579602363980835E12	1.0	11.698638179474415	85.48003491162994	1705.4945054945053	101.93258959294074	28.525351847481215	
1.5796023640003662E12	1.0	11.698638179474415	85.48003491162994	1715.018315018315	101.93529804069401	28.525351847481215	
1.5796023640198975E12	1.0	11.703743411060483	85.44274809160306	1712.8205128205127	101.93258959294074	28.525351847481215	
1.5796023640394287E12	1.0	11.708848642646549	85.40549378678877	1709.1575091575091	101.92988114771006	28.525351847481215	
1.57960236405896E12	1.0	11.708848642646549	85.40549378678877	1703.296703296703	101.92717270500201	28.525351847481215	
1.5796023640784912E12	1.0	11.713953874232619	85.36827195467423	1700.3663003663003	101.92717270500201	28.525351847481215	
1.5796023640980225E12	1.0	11.713953874232619	85.36827195467423	1703.296703296703	101.92988114771006	28.525351847481215	
1.5796023641175537E12	1.0	11.719059105818685	85.33108255282075	1704.7619047619046	101.92717270500201	28.525351847481215	
1.579602364137085E12	1.0	11.724164337404753	85.2939255388635	1705.4945054945053	101.92175582715366	28.525351847481215	
1.5796023641566162E12	1.0	11.729269568990823	85.25680087051144	1709.1575091575091	101.92717270500201	28.525351847481215	
1.5796023641761475E12	1.0	11.729269568990823	85.25680087051144	1708.4249084249084	101.93529804069401	28.525351847481215	
1.5796023641956787E12	1.0	11.739480032162957	85.1826484018265	1708.4249084249084	101.92717270500201	28.525351847481215	
1.57960236421521E12	1.0	11.739480032162957	85.1826484018265	1712.087912087912	101.92988114771006	28.525351847481215	
1.5796023642347412E12	1.0	11.739480032162957	85.1826484018265	1713.5531135531135	101.92988114771006	28.525351847481215	
1.5796023642542725E12	1.0	11.744585263749027	85.14562051727886	1715.018315018315	101.92717270500201	28.525351847481215	
1.5796023642738037E12	1.0	11.749690495335095	85.10862480990659	1717.9487179487178	101.92446426481654	28.525351847481215	
1.579602364293335E12	1.0	11.759900958507231	85.0347297590623	1716.4835164835163	101.92175582715366	28.525351847481215	
1.5796023643128662E12	1.0	11.754795726921163	85.07166123778502	1719.4139194139193	101.92717270500201	28.525351847481215	
1.5796023643323975E12	1.0	11.759900958507231	85.0347297590623	1720.8791208791208	101.92446426481654	28.525351847481215	
1.5796023643519287E12	1.0	11.759900958507231	85.0347297590623	1723.0769230769229	101.92175582715366	28.525351847481215	
1.57960236437146E12	1.0	11.7650061900933	84.9978303319592	1723.8095238095236	101.92446426481654	28.525351847481215	
1.5796023643909912E12	1.0	11.7650061900933	84.9978303319592	1726.007326007326	101.92717270500201	28.525351847481215	
1.5796023644105225E12	1.0	11.770111421679369	84.96096291476901	1727.4725274725274	101.93258959294074	28.525351847481215	
1.5796023644300537E12	1.0	11.775216653265435	84.92412746585735	1726.007326007326	101.92717270500201	28.525351847481215	
1.579602364449585E12	1.0	11.775216653265435	84.92412746585735	1728.2051282051282	101.92717270500201	28.525351847481215	
1.5796023644691162E12	1.0	11.780321884851505	84.88732394366195	1730.4029304029302	101.92717270500201	28.525351847481215	
1.5796023644886475E12	1.0	11.780321884851505	84.88732394366195	1731.8681318681317	101.92717270500201	28.525351847481215	
1.5796023645081787E12	1.0	11.775216653265435	84.92412746585735	1732.6007326007325	101.92717270500201	28.525351847481215	
1.57960236452771E12	1.0	11.775216653265435	84.92412746585735	1732.6007326007325	101.92175582715366	28.525351847481215	
1.5796023645472412E12	1.0	11.785427116437571	84.85055230669265	1732.6007326007325	101.92175582715366	28.525351847481215	
1.5796023645667725E12	1.0	11.775216653265435	84.92412746585735	1736.9963369963368	101.92717270500201	28.525351847481215	
1.5796023645863037E12	1.0	11.780321884851505	84.88732394366195	1735.5311355311353	101.92717270500201	28.525351847481215	
1.579602364605835E12	1.0	11.775216653265435	84.92412746585735	1734.7985347985348	101.93258959294074	28.525351847481215	
1.5796023646253662E12	1.0	11.775216653265435	84.92412746585735	1734.7985347985348	101.92717270500201	28.525351847481215	
1.5796023646448975E12	1.0	11.775216653265435	84.92412746585735	1734.065934065934	101.92175582715366	28.525351847481215	
1.5796023646644287E12	1.0	11.770111421679369	84.96096291476901	1733.3333333333333	101.92717270500201	28.525351847481215	
1.57960236468396E12	1.0	11.770111421679369	84.96096291476901	1730.4029304029302	101.92717270500201	28.525351847481215	
1.5796023647034912E12	1.0	11.785427116437571	84.85055230669265	1728.2051282051282	101.92175582715366	28.525351847481215	
1.5796023647230225E12	1.0	11.770111421679369	84.96096291476901	1734.065934065934	101.92988114771006	28.525351847481215	
1.5796023647425537E12	1.0	11.754795726921163	85.07166123778502	1729.6703296703295	101.92175582715366	28.525351847481215	
1.579602364762085E12	1.0	11.759900958507231	85.0347297590623	1726.7399267399267	101.92446426481654	28.525351847481215	
1.5796023647816162E12	1.0	11.759900958507231	85.0347297590623	1726.7399267399267	101.92175582715366	28.525351847481215	
1.5796023648011475E12	1.0	11.749690495335095	85.10862480990659	1726.007326007326	101.91904739201338	28.525351847481215	
1.5796023648206787E12	1.0	11.749690495335095	85.10862480990659	1721.6117216117216	101.92717270500201	28.525351847481215	
1.57960236484021E12	1.0	11.744585263749027	85.14562051727886	1720.14652014652	101.93131101558943	28.549985102657228	
1.5796023648597412E12	1.0	11.739480032162957	85.1826484018265	1720.8791208791208	101.93672812029133	28.549985102657228	
1.5796023648792725E12	1.0	11.739480032162957	85.1826484018265	1718.6813186813185	101.92860246702264	28.549985102657228	
1.5796023648988037E12	1.0	11.729269568990823	85.25680087051144	1717.9487179487178	101.92860246702264	28.549985102657228	
1.579602364918335E12	1.0	11.724164337404753	85.2939255388635	1713.5531135531135	101.93131101558943	28.549985102657228	
1.5796023649378662E12	1.0	11.719059105818685	85.33108255282075	1714.2857142857142	101.92589392097867	28.549985102657228	
1.5796023649573975E12	1.0	11.713953874232619	85.36827195467423	1711.3553113553112	101.92589392097867	28.549985102657228	
1.5796023649769287E12	1.0	11.703743411060483	85.44274809160306	1708.4249084249084	101.92589392097867	28.549985102657228	
1.57960236499646E12	1.0	11.703743411060483	85.44274809160306	1706.227106227106	101.92589392097867	28.549985102657228	
1.5796023650159912E12	1.0	11.698638179474415	85.48003491162994	1704.7619047619046	101.92860246702264	28.549985102657228	
1.5796023650355225E12	1.0	11.68842771630228	85.55470626774405	1701.098901098901	101.92318537745747	28.549985102657228	
1.5796023650550537E12	1.0	11.698638179474415	85.48003491162994	1695.970695970696	101.93131101558943	28.549985102657228	
1.579602365074585E12	1.0	11.678217253130144	85.62950819672132	1696.7032967032967	101.92318537745747	28.549985102657228	
1.5796023650941162E12	1.0	11.668006789958008	85.70444104134764	1693.040293040293	101.92589392097867	28.549985102657228	
1.5796023651136475E12	1.0	11.66290155837194	85.74195666447801	1687.179487179487	101.92589392097867	28.549985102657228	
1.5796023651331787E12	1.0	11.66290155837194	85.74195666447801	1687.179487179487	101.92047683645907	28.549985102657228	
1.57960236515271E12	1.0	11.652691095199804	85.81708652792992	1687.179487179487	101.92860246702264	28.549985102657228	
1.5796023651722412E12	1.0	11.647585863613736	85.85470085470087	1683.5164835164835	101.92047683645907	28.549985102657228	
1.5796023651917725E12	1.0	11.642480632027668	85.89234816926114	1678.3882783882782	101.93131101558943	28.549985102657228	
1.5796023652113037E12	1.0	11.627164937269466	86.00548847420418	1678.3882783882782	101.92589392097867	28.549985102657228	
1.579602365230835E12	1.0	11.627164937269466	86.00548847420418	1671.7948717948716	101.92318537745747	28.549985102657228	
1.5796023652503662E12	1.0	11.622059705683398	86.04326817482979	1668.8644688644688	101.92047683645907	28.549985102657228	
1.5796023652698975E12	1.0	11.61695447409733	86.0810810810811	1670.3296703296703	101.92860246702264	28.549985102657228	
1.5796023652894287E12	1.0	11.61695447409733	86.0810810810811	1668.131868131868	101.92860246702264	28.549985102657228	
1.57960236530896E12	1.0	11.606744010925194	86.15680668572686	1666.6666666666665	101.92318537745747	28.549985102657228	
1.5796023653284912E12	1.0	11.601638779339128	86.1947194719472	1662.2710622710622	101.92589392097867	28.549985102657228	
1.5796023653480225E12	1.0	11.59653354775306	86.2326656394453	1662.2710622710622	101.92860246702264	28.549985102657228	
1.5796023653675537E12	1.0	11.591428316166992	86.2706452323277	1659.3406593406592	101.92589392097867	28.549985102657228	
1.579602365387085E12	1.0	11.586323084580924	86.3086582947786	1657.8754578754579	101.92318537745747	28.549985102657228	
1.5796023654066162E12	1.0	11.581217852994856	86.34670487106018	1653.4798534798533	101.92047683645907	28.549985102657228	
1.5796023654261475E12	1.0	11.581217852994856	86.34670487106018	1654.212454212454	101.92047683645907	28.549985102657228	
1.5796023654456787E12	1.0	11.576112621408788	86.38478500551268	1654.212454212454	101.92589392097867	28.549985102657228	
1.57960236546521E12	1.0	11.576112621408788	86.38478500551268	1650.5494505494505	101.92589392097867	28.549985102657228	
1.5796023654847412E12	1.0	11.57100738982272	86.42289874255461	1649.084249084249	101.92047683645907	28.549985102657228	
1.5796023655042725E12	1.0	11.576112621408788	86.38478500551268	1647.6190476190475	101.92589392097867	28.549985102657228	
1.5796023655238037E12	1.0	11.57100738982272	86.42289874255461	1646.153846153846	101.92047683645907	28.549985102657228	
1.579602365543335E12	1.0	11.565902158236652	86.46104612668286	1646.153846153846	101.91776829798349	28.549985102657228	
1.5796023655628662E12	1.0	11.565902158236652	86.46104612668286	1643.2234432234432	101.92047683645907	28.549985102657228	
1.5796023655823975E12	1.0	11.565902158236652	86.46104612668286	1641.7582417582416	101.92589392097867	28.549985102657228	
1.5796023656019287E12	1.0	11.565902158236652	86.46104612668286	1641.0256410256409	101.92318537745747	28.549985102657228	
1.57960236562146E12	1.0	11.565902158236652	86.46104612668286	1640.2930402930401	101.92860246702264	28.549985102657228	
1.5796023656409912E12	1.0	11.57100738982272	86.42289874255461	1639.5604395604394	101.92589392097867	28.549985102657228	
1.5796023656605225E12	1.0	11.576112621408788	86.38478500551268	1643.2234432234432	101.92318537745747	28.549985102657228	
1.5796023656800537E12	1.0	11.586323084580924	86.3086582947786	1675.4578754578754	101.92318537745747	28.549985102657228	
1.579602365699585E12	1.0	11.581217852994856	86.34670487106018	1676.923076923077	101.92589392097867	28.549985102657228	
1.5796023657191162E12	1.0	11.581217852994856	86.34670487106018	1671.0622710622708	101.91776829798349	28.549985102657228	
1.5796023657386475E12	1.0	11.586323084580924	86.3086582947786	1681.3186813186812	101.92860246702264	28.549985102657228	
1.5796023657581787E12	1.0	11.591428316166992	86.2706452323277	1684.249084249084	101.92318537745747	28.549985102657228	
1.57960236577771E12	1.0	11.591428316166992	86.2706452323277	1638.095238095238	101.92589392097867	28.549985102657228	
1.5796023657972412E12	1.0	11.591428316166992	86.2706452323277	1618.3150183150183	101.92047683645907	28.549985102657228	
1.5796023658167725E12	1.0	11.601638779339128	86.1947194719472	1644.6886446886447	101.92047683645907	28.549985102657228	
1.5796023658363037E12	1.0	11.622059705683398	86.04326817482979	1665.201465201465	101.92295959538572	28.564765059255297	
1.579602365855835E12	1.0	11.627164937269466	86.00548847420418	1669.5970695970695	101.92566820141312	28.564765059255297	
1.5796023658753662E12	1.0	11.627164937269466	86.00548847420418	1666.6666666666665	101.92566820141312	28.564765059255297	
1.5796023658948975E12	1.0	11.622059705683398	86.04326817482979	1648.3516483516482	101.93108542103663	28.564765059255297	
1.5796023659144287E12	1.0	11.632270168855532	85.96774193548389	1656.4102564102564	101.93108542103663	28.564765059255297	
1.57960236593396E12	1.0	11.637375400441602	85.93002851502523	1661.5384615384614	101.92295959538572	28.564765059255297	
1.5796023659534912E12	1.0	11.642480632027668	85.89234816926114	1662.2710622710622	101.92295959538572	28.564765059255297	
1.5796023659730225E12	1.0	11.647585863613736	85.85470085470087	1666.6666666666665	101.91754239089964	28.564765059255297	
1.5796023659925537E12	1.0	11.652691095199804	85.81708652792992	1668.8644688644688	101.91754239089964	28.564765059255297	
1.579602366012085E12	1.0	11.657796326785872	85.77950514560982	1676.923076923077	101.92025099188125	28.564765059255297	
1.5796023660316162E12	1.0	11.652691095199804	85.81708652792992	1682.051282051282	101.92295959538572	28.564765059255297	
1.5796023660511475E12	1.0	11.657796326785872	85.77950514560982	1682.7838827838827	101.92295959538572	28.564765059255297	
1.5796023660706787E12	1.0	11.66290155837194	85.74195666447801	1690.10989010989	101.92837680996342	28.564765059255297	
1.57960236609021E12	1.0	11.66290155837194	85.74195666447801	1685.7142857142856	101.91754239089964	28.564765059255297	
1.5796023661097412E12	1.0	11.668006789958008	85.70444104134764	1686.4468864468863	101.92566820141312	28.564765059255297	
1.5796023661292725E12	1.0	11.673112021544076	85.66695823310738	1686.4468864468863	101.92295959538572	28.564765059255297	
1.5796023661488037E12	1.0	11.673112021544076	85.66695823310738	1688.6446886446886	101.92025099188125	28.564765059255297	
1.579602366168335E12	1.0	11.678217253130144	85.62950819672132	1695.2380952380952	101.92566820141312	28.564765059255297	
1.5796023661878662E12	1.0	11.678217253130144	85.62950819672132	1728.937728937729	101.92295959538572	28.564765059255297	
1.5796023662073975E12	1.0	11.683322484716212	85.59209088922876	1736.263736263736	101.92025099188125	28.564765059255297	
1.5796023662269287E12	1.0	11.68842771630228	85.55470626774405	1842.4908424908424	101.92295959538572	28.564765059255297	
1.57960236624646E12	1.0	11.68842771630228	85.55470626774405	1947.9853479853477	101.92025099188125	28.564765059255297	
1.5796023662659912E12	1.0	11.68842771630228	85.55470626774405	1936.263736263736	101.92566820141312	28.564765059255297	
1.5796023662855225E12	1.0	11.693532947888347	85.51735428945646	1889.3772893772893	101.92566820141312	28.564765059255297	
1.5796023663050537E12	1.0	11.68842771630228	85.55470626774405	1822.7106227106226	101.92295959538572	28.564765059255297	
1.579602366324585E12	1.0	11.683322484716212	85.59209088922876	1745.7875457875457	101.92566820141312	28.564765059255297	
1.5796023663441162E12	1.0	11.683322484716212	85.59209088922876	1701.8315018315018	101.92295959538572	28.564765059255297	
1.5796023663636475E12	1.0	11.68842771630228	85.55470626774405	1699.6336996336995	101.92025099188125	28.564765059255297	
1.5796023663831787E12	1.0	11.68842771630228	85.55470626774405	1700.3663003663003	101.91754239089964	28.564765059255297	
1.57960236640271E12	1.0	11.683322484716212	85.59209088922876	1704.7619047619046	101.92295959538572	28.564765059255297	
1.5796023664222412E12	1.0	11.68842771630228	85.55470626774405	1692.3076923076922	101.92025099188125	28.564765059255297	
1.5796023664417725E12	1.0	11.693532947888347	85.51735428945646	1638.095238095238	101.92295959538572	28.564765059255297	
1.5796023664613037E12	1.0	11.698638179474415	85.48003491162994	1596.3369963369962	101.92566820141312	28.564765059255297	
1.579602366480835E12	1.0	11.683322484716212	85.59209088922876	1743.5897435897434	101.92295959538572	28.564765059255297	
1.5796023665003662E12	1.0	11.678217253130144	85.62950819672132	1856.4102564102564	101.91483379244099	28.564765059255297	
1.5796023665198975E12	1.0	11.683322484716212	85.59209088922876	1818.3150183150183	101.92025099188125	28.564765059255297	
1.5796023665394287E12	1.0	11.673112021544076	85.66695823310738	1752.3809523809523	101.92566820141312	28.564765059255297	
1.57960236655896E12	1.0	11.668006789958008	85.70444104134764	1715.018315018315	101.91483379244099	28.564765059255297	
1.5796023665784912E12	1.0	11.66290155837194	85.74195666447801	1700.3663003663003	101.92025099188125	28.564765059255297	
1.5796023665980225E12	1.0	11.66290155837194	85.74195666447801	1697.4358974358972	101.92295959538572	28.564765059255297	
1.5796023666175537E12	1.0	11.66290155837194	85.74195666447801	1694.5054945054944	101.92295959538572	28.564765059255297	
1.579602366637085E12	1.0	11.657796326785872	85.77950514560982	1693.040293040293	101.91754239089964	28.564765059255297	
1.5796023666566162E12	1.0	11.657796326785872	85.77950514560982	1689.3772893772893	101.91754239089964	28.564765059255297	
1.5796023666761475E12	1.0	11.652691095199804	85.81708652792992	1687.179487179487	101.92025099188125	28.564765059255297	
1.5796023666956787E12	1.0	11.652691095199804	85.81708652792992	1685.7142857142856	101.92025099188125	28.564765059255297	
1.57960236671521E12	1.0	11.647585863613736	85.85470085470087	1684.9816849816848	101.92295959538572	28.564765059255297	
1.5796023667347412E12	1.0	11.642480632027668	85.89234816926114	1681.3186813186812	101.92295959538572	28.564765059255297	
1.5796023667542725E12	1.0	11.637375400441602	85.93002851502523	1681.3186813186812	101.92025099188125	28.564765059255297	
1.5796023667738037E12	1.0	11.637375400441602	85.93002851502523	1678.3882783882782	101.92566820141312	28.564765059255297	
1.579602366793335E12	1.0	11.632270168855532	85.96774193548389	1677.6556776556774	101.92295959538572	28.564765059255297	
1.5796023668128662E12	1.0	11.627164937269466	86.00548847420418	1675.4578754578754	101.92025099188125	28.564765059255297	
1.5796023668323975E12	1.0	11.627164937269466	86.00548847420418	1671.7948717948716	101.92438886950625	28.589398326072843	
1.5796023668519287E12	1.0	11.61695447409733	86.0810810810811	1670.3296703296703	101.92438886950625	28.589398326072843	
1.57960236687146E12	1.0	11.61695447409733	86.0810810810811	1668.131868131868	101.92709758139314	28.589398326072843	
1.5796023668909912E12	1.0	11.611849242511262	86.11892723675534	1666.6666666666665	101.91626274898418	28.589398326072843	
1.5796023669105225E12	1.0	11.606744010925194	86.15680668572686	1666.6666666666665	101.92709758139314	28.589398326072843	
1.5796023669300537E12	1.0	11.601638779339128	86.1947194719472	1673.9926739926739	101.92709758139314	28.589398326072843	
1.579602366949585E12	1.0	11.59653354775306	86.2326656394453	1673.9926739926739	101.92709758139314	28.589398326072843	
1.5796023669691162E12	1.0	11.59653354775306	86.2326656394453	1672.5274725274724	101.92438886950625	28.589398326072843	
1.5796023669886475E12	1.0	11.586323084580924	86.3086582947786	1668.131868131868	101.91897145330176	28.589398326072843	
1.5796023670081787E12	1.0	11.581217852994856	86.34670487106018	1662.2710622710622	101.91626274898418	28.589398326072843	
1.57960236702771E12	1.0	11.576112621408788	86.38478500551268	1658.6080586080584	101.91897145330176	28.589398326072843	
1.5796023670472412E12	1.0	11.57100738982272	86.42289874255461	1640.2930402930401	101.92168016014247	28.589398326072843	
1.5796023670667725E12	1.0	11.560796926650585	86.49922720247295	1632.2344322344322	101.92168016014247	28.589398326072843	
1.5796023670863037E12	1.0	11.555691695064516	86.5374420145792	1633.6996336996335	101.92438886950625	28.589398326072843	
1.579602367105835E12	1.0	11.550586463478448	86.57569060773481	1627.8388278388277	101.92168016014247	28.589398326072843	
1.5796023671253662E12	1.0	11.555691695064516	86.5374420145792	1637.3626373626373	101.92168016014247	28.589398326072843	
1.5796023671448975E12	1.0	11.540376000306313	86.6522893165229	1647.6190476190475	101.92709758139314	28.589398326072843	
1.5796023671644287E12	1.0	11.540376000306313	86.6522893165229	1778.021978021978	101.92168016014247	28.589398326072843	
1.57960236718396E12	1.0	11.530165537134177	86.72902368828869	1846.153846153846	101.92168016014247	28.589398326072843	
1.5796023672034912E12	1.0	11.530165537134177	86.72902368828869	1869.5970695970695	101.92168016014247	28.589398326072843	
1.5796023672230225E12	1.0	11.519955073962043	86.80589408375803	1879.8534798534797	101.92709758139314	28.589398326072843	
1.5796023672425537E12	1.0	11.514849842375973	86.84438040345822	1877.6556776556774	101.91897145330176	28.589398326072843	
1.579602367262085E12	1.0	11.530165537134177	86.72902368828869	1879.120879120879	101.92168016014247	28.589398326072843	
1.5796023672816162E12	1.0	11.509744610789905	86.8829008649368	1884.249084249084	101.92709758139314	28.589398326072843	
1.5796023673011475E12	1.0	11.494428916031703	86.99866755496336	1878.3882783882782	101.91626274898418	28.589398326072843	
1.5796023673206787E12	1.0	11.509744610789905	86.8829008649368	1866.6666666666665	101.92168016014247	28.589398326072843	
1.57960236734021E12	1.0	11.504639379203839	86.92145551364544	1863.7362637362637	101.92168016014247	28.589398326072843	
1.5796023673597412E12	1.0	11.504639379203839	86.92145551364544	1862.2710622710622	101.92168016014247	28.589398326072843	
1.5796023673792725E12	1.0	11.499534147617771	86.96004439511654	1838.095238095238	101.92709758139314	28.589398326072843	
1.5796023673988037E12	1.0	11.489323684445635	87.03732503888025	1816.8498168498168	101.92168016014247	28.589398326072843	
1.579602367418335E12	1.0	11.494428916031703	86.99866755496336	1799.9999999999998	101.92168016014247	28.589398326072843	
1.5796023674378662E12	1.0	11.484218452859567	87.07601689264281	1805.128205128205	101.92168016014247	28.589398326072843	
1.5796023674573975E12	1.0	11.4791132212735	87.11474316210807	1819.047619047619	101.92168016014247	28.589398326072843	
1.5796023674769287E12	1.0	11.4791132212735	87.11474316210807	1841.7582417582416	101.92438886950625	28.589398326072843	
1.57960236749646E12	1.0	11.4791132212735	87.11474316210807	1855.6776556776556	101.91626274898418	28.589398326072843	
1.5796023675159912E12	1.0	11.474007989687431	87.15350389321469	1838.095238095238	101.92709758139314	28.589398326072843	
1.5796023675355225E12	1.0	11.468902758101365	87.19229913198309	1824.9084249084249	101.92438886950625	28.589398326072843	
1.5796023675550537E12	1.0	11.468902758101365	87.19229913198309	1842.4908424908424	101.92438886950625	28.589398326072843	
1.579602367574585E12	1.0	11.4791132212735	87.11474316210807	1824.1758241758241	101.91626274898418	28.589398326072843	
1.5796023675941162E12	1.0	11.4791132212735	87.11474316210807	1822.7106227106226	101.92168016014247	28.589398326072843	
1.5796023676136475E12	1.0	11.499534147617771	86.96004439511654	1841.7582417582416	101.92438886950625	28.589398326072843	
1.5796023676331787E12	1.0	11.509744610789905	86.8829008649368	1860.07326007326	101.91626274898418	28.589398326072843	
1.57960236765271E12	1.0	11.504639379203839	86.92145551364544	1876.923076923077	101.91626274898418	28.589398326072843	
1.5796023676722412E12	1.0	11.494428916031703	86.99866755496336	1872.5274725274724	101.91897145330176	28.589398326072843	
1.5796023676917725E12	1.0	11.4791132212735	87.11474316210807	1763.3699633699632	101.92168016014247	28.589398326072843	
1.5796023677113037E12	1.0	11.499534147617771	86.96004439511654	1783.8827838827838	101.91355404718969	28.589398326072843	
1.579602367730835E12	1.0	11.504639379203839	86.92145551364544	1790.4761904761904	101.92168016014247	28.589398326072843	
1.5796023677503662E12	1.0	11.504639379203839	86.92145551364544	1825.6410256410254	101.91897145330176	28.589398326072843	
1.5796023677698975E12	1.0	11.509744610789905	86.8829008649368	1860.07326007326	101.92168016014247	28.589398326072843	
1.5796023677894287E12	1.0	11.509744610789905	86.8829008649368	1883.5164835164833	101.91626274898418	28.589398326072843	
1.57960236780896E12	1.0	11.519955073962043	86.80589408375803	1886.4468864468863	101.91897145330176	28.589398326072843	
1.5796023678284912E12	1.0	11.535270768720245	86.69063952201815	1894.5054945054944	101.9197989936411	28.594324980309466	
1.5796023678480225E12	1.0	11.555691695064516	86.5374420145792	1906.227106227106	101.9252164531987	28.594324980309466	
1.5796023678675537E12	1.0	11.581217852994856	86.34670487106018	1786.8131868131868	101.91438154417604	28.594324980309466	
1.579602367887085E12	1.0	11.591428316166992	86.2706452323277	1728.937728937729	101.917090267647	28.594324980309466	
1.5796023679066162E12	1.0	11.59653354775306	86.2326656394453	1697.4358974358972	101.917090267647	28.594324980309466	
1.5796023679261475E12	1.0	11.601638779339128	86.1947194719472	1682.7838827838827	101.91438154417604	28.594324980309466	
1.5796023679456787E12	1.0	11.606744010925194	86.15680668572686	1673.9926739926739	101.917090267647	28.594324980309466	
1.57960236796521E12	1.0	11.611849242511262	86.11892723675534	1679.8534798534797	101.91167282322823	28.594324980309466	
1.5796023679847412E12	1.0	11.61695447409733	86.0810810810811	1668.8644688644688	101.91167282322823	28.594324980309466	
1.5796023680042725E12	1.0	11.61695447409733	86.0810810810811	1669.5970695970695	101.917090267647	28.594324980309466	
1.5796023680238037E12	1.0	11.61695447409733	86.0810810810811	1668.131868131868	101.91167282322823	28.594324980309466	
1.579602368043335E12	1.0	11.622059705683398	86.04326817482979	1669.5970695970695	101.91438154417604	28.594324980309466	
1.5796023680628662E12	1.0	11.622059705683398	86.04326817482979	1679.120879120879	101.91167282322823	28.594324980309466	
1.5796023680823975E12	1.0	11.632270168855532	85.96774193548389	1683.5164835164835	101.91438154417604	28.594324980309466	
1.5796023681019287E12	1.0	11.627164937269466	86.00548847420418	1683.5164835164835	101.917090267647	28.594324980309466	
1.57960236812146E12	1.0	11.627164937269466	86.00548847420418	1681.3186813186812	101.91167282322823	28.594324980309466	
1.5796023681409912E12	1.0	11.627164937269466	86.00548847420418	1676.923076923077	101.9197989936411	28.594324980309466	
1.5796023681605225E12	1.0	11.632270168855532	85.96774193548389	1674.7252747252746	101.917090267647	28.594324980309466	
1.5796023681800537E12	1.0	11.632270168855532	85.96774193548389	1668.8644688644688	101.9197989936411	28.594324980309466	
1.579602368199585E12	1.0	11.632270168855532	85.96774193548389	1661.5384615384614	101.91167282322823	28.594324980309466	
1.5796023682191162E12	1.0	11.632270168855532	85.96774193548389	1660.8058608058607	101.9197989936411	28.594324980309466	
1.5796023682386475E12	1.0	11.647585863613736	85.85470085470087	1666.6666666666665	101.92250772215833	28.594324980309466	
1.5796023682581787E12	1.0	11.632270168855532	85.96774193548389	1671.7948717948716	101.92250772215833	28.594324980309466	
1.57960236827771E12	1.0	11.637375400441602	85.93002851502523	1676.1904761904761	101.9197989936411	28.594324980309466	
1.5796023682972412E12	1.0	11.632270168855532	85.96774193548389	1681.3186813186812	101.92250772215833	28.594324980309466	
1.5796023683167725E12	1.0	11.627164937269466	86.00548847420418	1684.249084249084	101.9197989936411	28.594324980309466	
1.5796023683363037E12	1.0	11.627164937269466	86.00548847420418	1675.4578754578754	101.91438154417604	28.594324980309466	
1.579602368355835E12	1.0	11.627164937269466	86.00548847420418	1666.6666666666665	101.917090267647	28.594324980309466	
1.5796023683753662E12	1.0	11.622059705683398	86.04326817482979	1663.003663003663	101.917090267647	28.594324980309466	
1.5796023683948975E12	1.0	11.61695447409733	86.0810810810811	1665.201465201465	101.9252164531987	28.594324980309466	
1.5796023684144287E12	1.0	11.61695447409733	86.0810810810811	1663.003663003663	101.91167282322823	28.594324980309466	
1.57960236843396E12	1.0	11.61695447409733	86.0810810810811	1660.07326007326	101.91167282322823	28.594324980309466	
1.5796023684534912E12	1.0	11.611849242511262	86.11892723675534	1657.8754578754579	101.917090267647	28.594324980309466	
1.5796023684730225E12	1.0	11.606744010925194	86.15680668572686	1654.212454212454	101.917090267647	28.594324980309466	
1.5796023684925537E12	1.0	11.59653354775306	86.2326656394453	1651.2820512820513	101.92250772215833	28.594324980309466	
1.579602368512085E12	1.0	11.601638779339128	86.1947194719472	1652.7472527472526	101.9252164531987	28.594324980309466	
1.5796023685316162E12	1.0	11.59653354775306	86.2326656394453	1660.8058608058607	101.91167282322823	28.594324980309466	
1.5796023685511475E12	1.0	11.59653354775306	86.2326656394453	1663.7362637362637	101.917090267647	28.594324980309466	
1.5796023685706787E12	1.0	11.591428316166992	86.2706452323277	1663.7362637362637	101.9197989936411	28.594324980309466	
1.57960236859021E12	1.0	11.586323084580924	86.3086582947786	1659.3406593406592	101.917090267647	28.594324980309466	
1.5796023686097412E12	1.0	11.581217852994856	86.34670487106018	1649.8168498168498	101.91438154417604	28.594324980309466	
1.5796023686292725E12	1.0	11.576112621408788	86.38478500551268	1646.8864468864467	101.9197989936411	28.594324980309466	
1.5796023686488037E12	1.0	11.576112621408788	86.38478500551268	1646.8864468864467	101.917090267647	28.594324980309466	
1.579602368668335E12	1.0	11.565902158236652	86.46104612668286	1635.164835164835	101.91167282322823	28.594324980309466	
1.5796023686878662E12	1.0	11.560796926650585	86.49922720247295	1640.2930402930401	101.917090267647	28.594324980309466	
1.5796023687073975E12	1.0	11.560796926650585	86.49922720247295	1642.4908424908424	101.917090267647	28.594324980309466	
1.5796023687269287E12	1.0	11.550586463478448	86.57569060773481	1644.6886446886447	101.9197989936411	28.594324980309466	
1.57960236874646E12	1.0	11.54548123189238	86.61397302675216	1641.7582417582416	101.92250772215833	28.594324980309466	
1.5796023687659912E12	1.0	11.540376000306313	86.6522893165229	1637.3626373626373	101.917090267647	28.594324980309466	
1.5796023687855225E12	1.0	11.535270768720245	86.69063952201815	1763.3699633699632	101.91438154417604	28.594324980309466	
1.5796023688050537E12	1.0	11.530165537134177	86.72902368828869	1821.245421245421	101.91438154417604	28.594324980309466	
1.579602368824585E12	1.0	11.519955073962043	86.80589408375803	1838.8278388278386	101.91686405146507	28.60910494476557	
1.5796023688441162E12	1.0	11.514849842375973	86.84438040345822	1860.8058608058607	101.91957283996571	28.60910494476557	
1.5796023688636475E12	1.0	11.514849842375973	86.84438040345822	1863.003663003663	101.91957283996571	28.60910494476557	
1.5796023688831787E12	1.0	11.504639379203839	86.92145551364544	1860.07326007326	101.93311682031779	28.60910494476557	
1.57960236890271E12	1.0	11.499534147617771	86.96004439511654	1861.5384615384614	101.92499042453676	28.60910494476557	
1.5796023689222412E12	1.0	11.489323684445635	87.03732503888025	1864.4688644688642	101.91957283996571	28.60910494476557	
1.5796023689417725E12	1.0	11.463797526515297	87.2311289245157	1738.4615384615383	101.91957283996571	28.60910494476557	
1.5796023689613037E12	1.0	11.474007989687431	87.15350389321469	1788.278388278388	101.9222816309896	28.60910494476557	
1.579602368980835E12	1.0	11.468902758101365	87.19229913198309	1819.7802197802196	101.91686405146507	28.60910494476557	
1.5796023690003662E12	1.0	11.463797526515297	87.2311289245157	1836.6300366300366	101.92769922060717	28.60910494476557	
1.5796023690198975E12	1.0	11.45869229492923	87.2699933169971	1846.153846153846	101.9222816309896	28.60910494476557	
1.5796023690394287E12	1.0	11.453587063343162	87.30889235569423	1850.5494505494505	101.91686405146507	28.60910494476557	
1.57960236905896E12	1.0	11.448481831757093	87.34782608695653	1846.153846153846	101.91957283996571	28.60910494476557	
1.5796023690784912E12	1.0	11.438271368584957	87.42579781298818	1842.4908424908424	101.91957283996571	28.60910494476557	
1.5796023690980225E12	1.0	11.433166136998889	87.46483590087074	1839.5604395604394	101.9222816309896	28.60910494476557	
1.5796023691175537E12	1.0	11.422955673826753	87.54301675977653	1835.8974358974358	101.91957283996571	28.60910494476557	
1.579602369137085E12	1.0	11.417850442240685	87.58215962441315	1830.03663003663	101.9222816309896	28.60910494476557	
1.5796023691566162E12	1.0	11.407639979068549	87.6605504587156	1828.5714285714284	101.91957283996571	28.60910494476557	
1.5796023691761475E12	1.0	11.397429515896414	87.73908174692049	1818.3150183150183	101.91957283996571	28.60910494476557	
1.5796023691956787E12	1.0	11.397429515896414	87.73908174692049	1816.8498168498168	101.92499042453676	28.60910494476557	
1.57960236921521E12	1.0	11.392324284310348	87.77840017925162	1817.5824175824175	101.92499042453676	28.60910494476557	
1.5796023692347412E12	1.0	11.38211382113821	87.85714285714286	1814.6520146520145	101.92769922060717	28.60910494476557	
1.5796023692542725E12	1.0	11.38211382113821	87.85714285714286	1810.989010989011	101.91957283996571	28.60910494476557	
1.5796023692738037E12	1.0	11.371903357966076	87.93602693602693	1810.989010989011	101.92499042453676	28.60910494476557	
1.579602369293335E12	1.0	11.36169289479394	88.01505279712424	1805.128205128205	101.91686405146507	28.60910494476557	
1.5796023693128662E12	1.0	11.351482431621804	88.09422082302676	1801.4652014652013	101.91957283996571	28.60910494476557	
1.5796023693323975E12	1.0	11.351482431621804	88.09422082302676	1797.069597069597	101.91957283996571	28.60910494476557	
1.5796023693519287E12	1.0	11.346377200035738	88.13385826771653	1795.6043956043954	101.91957283996571	28.60910494476557	
1.57960236937146E12	1.0	11.34127196844967	88.17353139770425	1794.8717948717947	101.9222816309896	28.60910494476557	
1.5796023693909912E12	1.0	11.336166736863602	88.21324026120243	1792.6739926739926	101.91686405146507	28.60910494476557	
1.5796023694105225E12	1.0	11.325956273691466	88.29276538201488	1792.6739926739926	101.91686405146507	28.60910494476557	
1.5796023694300537E12	1.0	11.3208510421054	88.3325817361894	1788.278388278388	101.91957283996571	28.60910494476557	
1.579602369449585E12	1.0	11.31574581051933	88.37243401759531	1782.4175824175823	101.91957283996571	28.60910494476557	
1.5796023694691162E12	1.0	11.310640578933262	88.41232227488152	1780.2197802197802	101.91957283996571	28.60910494476557	
1.5796023694886475E12	1.0	11.305535347347195	88.45224655678483	1774.3589743589741	101.91957283996571	28.60910494476557	
1.5796023695081787E12	1.0	11.29532488417506	88.53220338983051	1772.161172161172	101.9141552654877	28.60910494476557	
1.57960236952771E12	1.0	11.290219652588991	88.57223603888764	1767.032967032967	101.9141552654877	28.60910494476557	
1.5796023695472412E12	1.0	11.29532488417506	88.53220338983051	1778.7545787545787	101.91686405146507	28.60910494476557	
1.5796023695667725E12	1.0	11.280009189416853	88.65241004752207	1768.4981684981683	101.9141552654877	28.60910494476557	
1.5796023695863037E12	1.0	11.274903957830787	88.69255150554675	1760.4395604395604	101.91686405146507	28.60910494476557	
1.579602369605835E12	1.0	11.264693494658651	88.77294357579878	1758.974358974359	101.92499042453676	28.60910494476557	
1.5796023696253662E12	1.0	11.264693494658651	88.77294357579878	1754.5787545787546	101.9141552654877	28.60910494476557	
1.5796023696448975E12	1.0	11.254483031486517	88.85348151508278	1751.6483516483515	101.91686405146507	28.60910494476557	
1.5796023696644287E12	1.0	11.249377799900447	88.89380530973452	1748.7179487179485	101.91957283996571	28.60910494476557	
1.57960236968396E12	1.0	11.244272568314381	88.93416572077184	1744.3223443223442	101.9141552654877	28.60910494476557	
1.5796023697034912E12	1.0	11.239167336728313	88.97456279809221	1741.3919413919414	101.9141552654877	28.60910494476557	
1.5796023697230225E12	1.0	11.234062105142243	89.01499659168371	1736.9963369963368	101.91957283996571	28.60910494476557	
1.5796023697425537E12	1.0	11.228956873556177	89.05546715162536	1735.5311355311353	101.91957283996571	28.60910494476557	
1.579602369762085E12	1.0	11.223851641970109	89.09597452808732	1732.6007326007325	101.91957283996571	28.60910494476557	
1.5796023697816162E12	1.0	11.21874641038404	89.13651877133105	1729.6703296703295	101.9141552654877	28.60910494476557	
1.5796023698011475E12	1.0	11.208535947211905	89.2177180596675	1726.007326007326	101.91686405146507	28.60910494476557	
1.5796023698206787E12	1.0	11.254483031486517	88.85348151508278	1724.5421245421244	101.91934658324475	28.623884911841014	
1.57960236984021E12	1.0	11.203430715625839	89.25837320574162	1734.065934065934	101.91934658324475	28.623884911841014	
1.5796023698597412E12	1.0	11.208535947211905	89.2177180596675	1727.4725274725274	101.93018201250801	28.623884911841014	
1.5796023698792725E12	1.0	11.193220252453703	89.33979475484607	1726.007326007326	101.92747315140713	28.623884911841014	
1.5796023698988037E12	1.0	11.183009789281568	89.4213649851632	1724.5421245421244	101.92476429282962	28.623884911841014	
1.579602369918335E12	1.0	11.1779045576955	89.46220598310116	1722.3443223443223	101.9220554367755	28.623884911841014	
1.5796023699378662E12	1.0	11.1779045576955	89.46220598310116	1717.9487179487178	101.9220554367755	28.623884911841014	
1.5796023699573975E12	1.0	11.167694094523364	89.544	1716.4835164835163	101.9220554367755	28.623884911841014	
1.5796023699769287E12	1.0	11.172799326109432	89.50308430431802	1717.216117216117	101.91663773223738	28.623884911841014	
1.57960236999646E12	1.0	11.167694094523364	89.544	1720.8791208791208	101.91663773223738	28.623884911841014	
1.5796023700159912E12	1.0	11.162588862937296	89.58495312142693	1723.0769230769229	101.92476429282962	28.623884911841014	
1.5796023700355225E12	1.0	11.157483631351228	89.62594371997254	1731.135531135531	101.91934658324475	28.623884911841014	
1.5796023700550537E12	1.0	11.152378399765162	89.66697184710459	1727.4725274725274	101.9220554367755	28.623884911841014	
1.579602370074585E12	1.0	11.147273168179092	89.70803755438516	1715.018315018315	101.91392888375337	28.623884911841014	
1.5796023700941162E12	1.0	11.142167936593024	89.74914089347078	1698.9010989010987	101.91934658324475	28.623884911841014	
1.5796023701136475E12	1.0	11.137062705006956	89.79028191611276	1702.5641025641025	101.91934658324475	28.623884911841014	
1.5796023701331787E12	1.0	11.131957473420888	89.8314606741573	1714.2857142857142	101.91663773223738	28.623884911841014	
1.57960237015271E12	1.0	11.131957473420888	89.8314606741573	1717.9487179487178	101.91392888375337	28.623884911841014	
1.5796023701722412E12	1.0	11.12685224183482	89.87267721954576	1704.7619047619046	101.91663773223738	28.623884911841014	
1.5796023701917725E12	1.0	11.121747010248752	89.9139316043149	1684.249084249084	101.91122003779273	28.623884911841014	
1.5796023702113037E12	1.0	11.121747010248752	89.9139316043149	1675.4578754578754	101.91392888375337	28.623884911841014	
1.579602370230835E12	1.0	11.116641778662686	89.955223880597	1675.4578754578754	101.91392888375337	28.623884911841014	
1.5796023702503662E12	1.0	11.116641778662686	89.955223880597	1679.120879120879	101.91392888375337	28.623884911841014	
1.5796023702698975E12	1.0	11.111536547076616	89.99655410062026	1673.260073260073	101.91392888375337	28.623884911841014	
1.5796023702894287E12	1.0	11.106431315490548	90.0379223167088	1676.1904761904761	101.91663773223738	28.623884911841014	
1.57960237030896E12	1.0	11.116641778662686	89.955223880597	1676.923076923077	101.91663773223738	28.623884911841014	
1.5796023703284912E12	1.0	11.101326083904482	90.07932858128305	1684.249084249084	101.91392888375337	28.623884911841014	
1.5796023703480225E12	1.0	11.096220852318414	90.1207729468599	1692.3076923076922	101.9220554367755	28.623884911841014	
1.5796023703675537E12	1.0	11.091115620732346	90.16225546605293	1682.7838827838827	101.91663773223738	28.623884911841014	
1.579602370387085E12	1.0	11.091115620732346	90.16225546605293	1673.9926739926739	101.91663773223738	28.623884911841014	
1.5796023704066162E12	1.0	11.091115620732346	90.16225546605293	1670.3296703296703	101.91934658324475	28.623884911841014	
1.5796023704261475E12	1.0	11.086010389146278	90.20377619157264	1666.6666666666665	101.91392888375337	28.623884911841014	
1.5796023704456787E12	1.0	11.086010389146278	90.20377619157264	1657.142857142857	101.91934658324475	28.623884911841014	
1.57960237046521E12	1.0	11.075799925974144	90.28693247292001	1630.03663003663	101.91934658324475	28.623884911841014	
1.5796023704847412E12	1.0	11.075799925974144	90.28693247292001	1629.3040293040292	101.91663773223738	28.623884911841014	
1.5796023705042725E12	1.0	11.075799925974144	90.28693247292001	1630.7692307692307	101.91663773223738	28.623884911841014	
1.5796023705238037E12	1.0	11.070694694388076	90.32856813465528	1640.2930402930401	101.91663773223738	28.623884911841014	
1.579602370543335E12	1.0	11.065589462802008	90.37024221453287	1643.956043956044	101.91663773223738	28.623884911841014	
1.5796023705628662E12	1.0	11.075799925974144	90.28693247292001	1634.4322344322343	101.91663773223738	28.623884911841014	
1.5796023705823975E12	1.0	11.06048423121594	90.4119547657512	1633.6996336996335	101.9220554367755	28.623884911841014	
1.5796023706019287E12	1.0	11.06048423121594	90.4119547657512	1645.4212454212452	101.91663773223738	28.623884911841014	
1.57960237062146E12	1.0	11.055378999629871	90.45370584160702	1652.7472527472526	101.91663773223738	28.623884911841014	
1.5796023706409912E12	1.0	11.055378999629871	90.45370584160702	1654.9450549450548	101.91934658324475	28.623884911841014	
1.5796023706605225E12	1.0	11.055378999629871	90.45370584160702	1657.142857142857	101.91934658324475	28.623884911841014	
1.5796023706800537E12	1.0	11.050273768043803	90.49549549549549	1659.3406593406592	101.91392888375337	28.623884911841014	
1.579602370699585E12	1.0	11.045168536457735	90.53732378091055	1656.4102564102564	101.91392888375337	28.623884911841014	
1.5796023707191162E12	1.0	11.045168536457735	90.53732378091055	1652.0146520146518	101.91663773223738	28.623884911841014	
1.5796023707386475E12	1.0	11.040063304871667	90.57919075144508	1649.8168498168498	101.91934658324475	28.623884911841014	
1.5796023707581787E12	1.0	11.034958073285601	90.62109646079111	1647.6190476190475	101.91934658324475	28.623884911841014	
1.57960237077771E12	1.0	11.034958073285601	90.62109646079111	1643.2234432234432	101.91663773223738	28.623884911841014	
1.5796023707972412E12	1.0	11.034958073285601	90.62109646079111	1641.7582417582416	101.91934658324475	28.623884911841014	
1.5796023708167725E12	1.0	11.034958073285601	90.62109646079111	1642.4908424908424	101.91769155933738	28.614031600166346	
1.5796023708363037E12	1.0	11.024747610113465	90.70502431118314	1643.956043956044	101.92310918221527	28.614031600166346	
1.579602370855835E12	1.0	11.024747610113465	90.70502431118314	1644.6886446886447	101.9149827516834	28.614031600166346	
1.5796023708753662E12	1.0	11.019642378527399	90.74704656011117	1647.6190476190475	101.9149827516834	28.614031600166346	
1.5796023708948975E12	1.0	11.019642378527399	90.74704656011117	1642.4908424908424	101.91769155933738	28.614031600166346	
1.5796023709144287E12	1.0	11.01453714694133	90.78910776361529	1634.4322344322343	101.9149827516834	28.614031600166346	
1.57960237093396E12	1.0	11.01453714694133	90.78910776361529	1628.5714285714284	101.92040036951468	28.614031600166346	
1.5796023709534912E12	1.0	11.009431915355263	90.83120797588684	1629.3040293040292	101.92040036951468	28.614031600166346	
1.5796023709730225E12	1.0	11.01453714694133	90.78910776361529	1632.2344322344322	101.92310918221527	28.614031600166346	
1.5796023709925537E12	1.0	11.01453714694133	90.78910776361529	1631.5018315018315	101.92040036951468	28.614031600166346	
1.579602371012085E12	1.0	11.009431915355263	90.83120797588684	1630.7692307692307	101.91769155933738	28.614031600166346	
1.5796023710316162E12	1.0	11.009431915355263	90.83120797588684	1633.6996336996335	101.92581799743917	28.614031600166346	
1.5796023710511475E12	1.0	11.004326683769195	90.87334725121781	1635.164835164835	101.92040036951468	28.614031600166346	
1.5796023710706787E12	1.0	11.004326683769195	90.87334725121781	1635.8974358974358	101.92040036951468	28.614031600166346	
1.57960237109021E12	1.0	11.004326683769195	90.87334725121781	1638.095238095238	101.92581799743917	28.614031600166346	
1.5796023711097412E12	1.0	10.999221452183127	90.91552564400092	1638.8278388278386	101.92040036951468	28.614031600166346	
1.5796023711292725E12	1.0	10.999221452183127	90.91552564400092	1640.2930402930401	101.93123563545684	28.614031600166346	
1.5796023711488037E12	1.0	10.999221452183127	90.91552564400092	1640.2930402930401	101.92581799743917	28.614031600166346	
1.579602371168335E12	1.0	11.004326683769195	90.87334725121781	1649.084249084249	101.91769155933738	28.614031600166346	
1.5796023711878662E12	1.0	11.024747610113465	90.70502431118314	1920.8791208791208	101.9149827516834	28.614031600166346	
1.5796023712073975E12	1.0	10.999221452183127	90.91552564400092	1775.8241758241757	101.92040036951468	28.614031600166346	
1.5796023712269287E12	1.0	10.989010989010989	90.99999999999999	1706.227106227106	101.9149827516834	28.614031600166346	
1.57960237124646E12	1.0	10.994116220597057	90.95774320872997	1671.7948717948716	101.91769155933738	28.614031600166346	
1.5796023712659912E12	1.0	10.989010989010989	90.99999999999999	1654.212454212454	101.91227394655269	28.614031600166346	
1.5796023712855225E12	1.0	10.983905757424923	91.04229607250754	1623.4432234432234	101.92040036951468	28.614031600166346	
1.5796023713050537E12	1.0	10.978800525838855	91.0846314810509	1547.2527472527472	101.9149827516834	28.614031600166346	
1.579602371324585E12	1.0	10.983905757424923	91.04229607250754	1579.4871794871794	101.92040036951468	28.614031600166346	
1.5796023713441162E12	1.0	10.983905757424923	91.04229607250754	1600.0	101.92040036951468	28.614031600166346	
1.5796023713636475E12	1.0	10.983905757424923	91.04229607250754	1616.8498168498168	101.91769155933738	28.614031600166346	
1.5796023713831787E12	1.0	10.989010989010989	90.99999999999999	1645.4212454212452	101.91769155933738	28.614031600166346	
1.57960237140271E12	1.0	10.983905757424923	91.04229607250754	1641.7582417582416	101.92040036951468	28.614031600166346	
1.5796023714222412E12	1.0	10.978800525838855	91.0846314810509	1643.2234432234432	101.92040036951468	28.614031600166346	
1.5796023714417725E12	1.0	10.978800525838855	91.0846314810509	1639.5604395604394	101.92040036951468	28.614031600166346	
1.5796023714613037E12	1.0	10.978800525838855	91.0846314810509	1633.6996336996335	101.9149827516834	28.614031600166346	
1.579602371480835E12	1.0	10.973695294252785	91.12700628053035	1627.106227106227	101.9149827516834	28.614031600166346	
1.5796023715003662E12	1.0	10.978800525838855	91.0846314810509	1644.6886446886447	101.91769155933738	28.614031600166346	
1.5796023715198975E12	1.0	10.983905757424923	91.04229607250754	1704.7619047619046	101.91227394655269	28.614031600166346	
1.5796023715394287E12	1.0	10.983905757424923	91.04229607250754	1727.4725274725274	101.92581799743917	28.614031600166346	
1.57960237155896E12	1.0	10.973695294252785	91.12700628053035	1683.5164835164835	101.91769155933738	28.614031600166346	
1.5796023715784912E12	1.0	10.968590062666719	91.16942052594833	1627.8388278388277	101.9149827516834	28.614031600166346	
1.5796023715980225E12	1.0	10.958379599494583	91.25436757512229	1613.186813186813	101.9149827516834	28.614031600166346	
1.5796023716175537E12	1.0	10.96348483108065	91.21187427240977	1595.6043956043954	101.9149827516834	28.614031600166346	
1.579602371637085E12	1.0	10.968590062666719	91.16942052594833	1569.230769230769	101.92040036951468	28.614031600166346	
1.5796023716566162E12	1.0	10.958379599494583	91.25436757512229	1545.054945054945	101.9149827516834	28.614031600166346	
1.5796023716761475E12	1.0	10.96348483108065	91.21187427240977	1577.2893772893772	101.92040036951468	28.614031600166346	
1.5796023716956787E12	1.0	10.96348483108065	91.21187427240977	1594.8717948717947	101.9149827516834	28.614031600166346	
1.57960237171521E12	1.0	10.96348483108065	91.21187427240977	1604.3956043956043	101.92040036951468	28.614031600166346	
1.5796023717347412E12	1.0	10.958379599494583	91.25436757512229	1609.5238095238094	101.9149827516834	28.614031600166346	
1.5796023717542725E12	1.0	10.953274367908515	91.2969004893964	1612.4542124542124	101.91227394655269	28.614031600166346	
1.5796023717738037E12	1.0	10.953274367908515	91.2969004893964	1610.2564102564102	101.92040036951468	28.614031600166346	
1.579602371793335E12	1.0	10.953274367908515	91.2969004893964	1609.5238095238094	101.92310918221527	28.614031600166346	
1.5796023718128662E12	1.0	10.948169136322448	91.33947307064582	1609.5238095238094	101.92724697915556	28.638664881535806	
1.5796023718323975E12	1.0	10.948169136322448	91.33947307064582	1612.4542124542124	101.9218291395095	28.638664881535806	
1.5796023718519287E12	1.0	10.948169136322448	91.33947307064582	1613.9194139194137	101.9191202234717	28.638664881535806	
1.57960237187146E12	1.0	10.948169136322448	91.33947307064582	1614.6520146520145	101.9218291395095	28.638664881535806	
1.5796023718909912E12	1.0	10.948169136322448	91.33947307064582	1614.6520146520145	101.9191202234717	28.638664881535806	
1.5796023719105225E12	1.0	10.948169136322448	91.33947307064582	1614.6520146520145	101.9218291395095	28.638664881535806	
1.5796023719300537E12	1.0	10.94306390473638	91.38208537438767	1613.9194139194137	101.92453805807077	28.638664881535806	
1.579602371949585E12	1.0	10.948169136322448	91.33947307064582	1608.058608058608	101.92724697915556	28.638664881535806	
1.5796023719691162E12	1.0	10.94306390473638	91.38208537438767	1610.2564102564102	101.92724697915556	28.638664881535806	
1.5796023719886475E12	1.0	10.94306390473638	91.38208537438767	1608.7912087912086	101.9218291395095	28.638664881535806	
1.5796023720081787E12	1.0	10.94306390473638	91.38208537438767	1608.058608058608	101.9218291395095	28.638664881535806	
1.57960237202771E12	1.0	10.94306390473638	91.38208537438767	1607.3260073260071	101.9218291395095	28.638664881535806	
1.5796023720472412E12	1.0	10.937958673150312	91.4247374562427	1608.058608058608	101.9191202234717	28.638664881535806	
1.5796023720667725E12	1.0	10.948169136322448	91.33947307064582	1639.5604395604394	101.9218291395095	28.638664881535806	
1.5796023720863037E12	1.0	10.937958673150312	91.4247374562427	1672.5274725274724	101.9218291395095	28.638664881535806	
1.579602372105835E12	1.0	10.937958673150312	91.4247374562427	1647.6190476190475	101.91641130995738	28.638664881535806	
1.5796023721253662E12	1.0	10.937958673150312	91.4247374562427	1630.7692307692307	101.91641130995738	28.638664881535806	
1.5796023721448975E12	1.0	10.937958673150312	91.4247374562427	1623.4432234432234	101.9191202234717	28.638664881535806	
1.5796023721644287E12	1.0	10.937958673150312	91.4247374562427	1616.8498168498168	101.9191202234717	28.638664881535806	
1.57960237218396E12	1.0	10.937958673150312	91.4247374562427	1627.106227106227	101.91641130995738	28.638664881535806	
1.5796023722034912E12	1.0	10.937958673150312	91.4247374562427	1634.4322344322343	101.9218291395095	28.638664881535806	
1.5796023722230225E12	1.0	10.937958673150312	91.4247374562427	1632.9670329670328	101.9191202234717	28.638664881535806	
1.5796023722425537E12	1.0	10.937958673150312	91.4247374562427	1629.3040293040292	101.9218291395095	28.638664881535806	
1.579602372262085E12	1.0	10.937958673150312	91.4247374562427	1625.6410256410256	101.9218291395095	28.638664881535806	
1.5796023722816162E12	1.0	10.937958673150312	91.4247374562427	1608.7912087912086	101.92453805807077	28.638664881535806	
1.5796023723011475E12	1.0	10.94306390473638	91.38208537438767	1601.4652014652013	101.9191202234717	28.638664881535806	
1.5796023723206787E12	1.0	10.937958673150312	91.4247374562427	1584.6153846153845	101.9191202234717	28.638664881535806	
1.57960237234021E12	1.0	10.932853441564244	91.46742937193555	1524.5421245421244	101.9326648288956	28.638664881535806	
1.5796023723597412E12	1.0	10.937958673150312	91.4247374562427	1542.1245421245421	101.91641130995738	28.638664881535806	
1.5796023723792725E12	1.0	10.927748209978176	91.51016117729502	1470.3296703296703	101.9191202234717	28.638664881535806	
1.5796023723988037E12	1.0	10.932853441564244	91.46742937193555	1511.3553113553112	101.91641130995738	28.638664881535806	
1.579602372418335E12	1.0	10.94306390473638	91.38208537438767	1557.5091575091574	101.9218291395095	28.638664881535806	
1.5796023724378662E12	1.0	10.94306390473638	91.38208537438767	1584.6153846153845	101.9191202234717	28.638664881535806	
1.5796023724573975E12	1.0	10.937958673150312	91.4247374562427	1596.3369963369962	101.92453805807077	28.638664881535806	
1.5796023724769287E12	1.0	10.94306390473638	91.38208537438767	1600.0	101.91370239896658	28.638664881535806	
1.57960237249646E12	1.0	10.94306390473638	91.38208537438767	1599.2673992673992	101.9218291395095	28.638664881535806	
1.5796023725159912E12	1.0	10.937958673150312	91.4247374562427	1602.197802197802	101.91641130995738	28.638664881535806	
1.5796023725355225E12	1.0	10.94306390473638	91.38208537438767	1605.128205128205	101.91370239896658	28.638664881535806	
1.5796023725550537E12	1.0	10.94306390473638	91.38208537438767	1605.8608058608058	101.92453805807077	28.638664881535806	
1.579602372574585E12	1.0	10.94306390473638	91.38208537438767	1598.5347985347985	101.92995590276384	28.638664881535806	
1.5796023725941162E12	1.0	10.94306390473638	91.38208537438767	1598.5347985347985	101.92453805807077	28.638664881535806	
1.5796023726136475E12	1.0	10.948169136322448	91.33947307064582	1593.4065934065934	101.9218291395095	28.638664881535806	
1.5796023726331787E12	1.0	10.948169136322448	91.33947307064582	1602.9304029304028	101.92995590276384	28.638664881535806	
1.57960237265271E12	1.0	10.948169136322448	91.33947307064582	1608.058608058608	101.91641130995738	28.638664881535806	
1.5796023726722412E12	1.0	10.953274367908515	91.2969004893964	1605.128205128205	101.91641130995738	28.638664881535806	
1.5796023726917725E12	1.0	10.953274367908515	91.2969004893964	1598.5347985347985	101.9218291395095	28.638664881535806	
1.5796023727113037E12	1.0	10.958379599494583	91.25436757512229	1605.8608058608058	101.91641130995738	28.638664881535806	
1.579602372730835E12	1.0	10.96348483108065	91.21187427240977	1608.058608058608	101.9218291395095	28.638664881535806	
1.5796023727503662E12	1.0	10.96348483108065	91.21187427240977	1610.989010989011	101.9191202234717	28.638664881535806	
1.5796023727698975E12	1.0	10.968590062666719	91.16942052594833	1604.3956043956043	101.91370239896658	28.638664881535806	
1.5796023727894287E12	1.0	10.973695294252785	91.12700628053035	1605.128205128205	101.9218291395095	28.638664881535806	
1.57960237280896E12	1.0	10.978800525838855	91.0846314810509	1605.128205128205	101.92265666370453	28.643591538682813	
1.5796023728284912E12	1.0	10.983905757424923	91.04229607250754	1605.8608058608058	101.91994772598983	28.643591538682813	
1.5796023728480225E12	1.0	10.989010989010989	90.99999999999999	1605.8608058608058	101.92265666370453	28.643591538682813	
1.5796023728675537E12	1.0	10.994116220597057	90.95774320872997	1611.7216117216117	101.92536560394275	28.643591538682813	
1.579602372887085E12	1.0	11.004326683769195	90.87334725121781	1613.186813186813	101.92536560394275	28.643591538682813	
1.5796023729066162E12	1.0	11.009431915355263	90.83120797588684	1616.8498168498168	101.91723879079868	28.643591538682813	
1.5796023729261475E12	1.0	11.01453714694133	90.78910776361529	1627.106227106227	101.92807454670451	28.643591538682813	
1.5796023729456787E12	1.0	11.024747610113465	90.70502431118314	1635.164835164835	101.92265666370453	28.643591538682813	
1.57960237296521E12	1.0	11.034958073285601	90.62109646079111	1657.8754578754579	101.92265666370453	28.643591538682813	
1.5796023729847412E12	1.0	11.045168536457735	90.53732378091055	1668.131868131868	101.91994772598983	28.643591538682813	
1.5796023730042725E12	1.0	11.050273768043803	90.49549549549549	1651.2820512820513	101.91994772598983	28.643591538682813	
1.5796023730238037E12	1.0	11.06048423121594	90.4119547657512	1648.3516483516482	101.91994772598983	28.643591538682813	
1.579602373043335E12	1.0	11.070694694388076	90.32856813465528	1654.212454212454	101.91994772598983	28.643591538682813	
1.5796023730628662E12	1.0	11.086010389146278	90.20377619157264	1663.003663003663	101.91994772598983	28.643591538682813	
1.5796023730823975E12	1.0	11.096220852318414	90.1207729468599	1673.260073260073	101.92536560394275	28.643591538682813	
1.5796023731019287E12	1.0	11.106431315490548	90.0379223167088	1687.9120879120878	101.91994772598983	28.643591538682813	
1.57960237312146E12	1.0	11.116641778662686	89.955223880597	1669.5970695970695	101.91994772598983	28.643591538682813	
1.5796023731409912E12	1.0	11.12685224183482	89.87267721954576	1717.216117216117	101.91452985813103	28.643591538682813	
1.5796023731605225E12	1.0	11.142167936593024	89.74914089347078	1747.2527472527472	101.92536560394275	28.643591538682813	
1.5796023731800537E12	1.0	11.147273168179092	89.70803755438516	1775.8241758241757	101.91723879079868	28.643591538682813	
1.579602373199585E12	1.0	11.147273168179092	89.70803755438516	1706.227106227106	101.91452985813103	28.643591538682813	
1.5796023732191162E12	1.0	11.162588862937296	89.58495312142693	1687.9120879120878	101.91723879079868	28.643591538682813	
1.5796023732386475E12	1.0	11.157483631351228	89.62594371997254	1747.985347985348	101.91994772598983	28.643591538682813	
1.5796023732581787E12	1.0	11.188115020867636	89.38056125941135	1818.3150183150183	101.91994772598983	28.643591538682813	
1.57960237327771E12	1.0	11.193220252453703	89.33979475484607	1659.3406593406592	101.91994772598983	28.643591538682813	
1.5796023732972412E12	1.0	11.193220252453703	89.33979475484607	1715.7509157509157	101.92265666370453	28.643591538682813	
1.5796023733167725E12	1.0	11.203430715625839	89.25837320574162	1756.7765567765566	101.91994772598983	28.643591538682813	
1.5796023733363037E12	1.0	11.208535947211905	89.2177180596675	1749.4505494505493	101.91994772598983	28.643591538682813	
1.579602373355835E12	1.0	11.208535947211905	89.2177180596675	1698.9010989010987	101.91723879079868	28.643591538682813	
1.5796023733753662E12	1.0	11.223851641970109	89.09597452808732	1680.5860805860805	101.92807454670451	28.643591538682813	
1.5796023733948975E12	1.0	11.223851641970109	89.09597452808732	1660.8058608058607	101.91994772598983	28.643591538682813	
1.5796023734144287E12	1.0	11.228956873556177	89.05546715162536	1657.142857142857	101.92536560394275	28.643591538682813	
1.57960237343396E12	1.0	11.239167336728313	88.97456279809221	1656.4102564102564	101.92265666370453	28.643591538682813	
1.5796023734534912E12	1.0	11.244272568314381	88.93416572077184	1696.7032967032967	101.91452985813103	28.643591538682813	
1.5796023734730225E12	1.0	11.254483031486517	88.85348151508278	1730.4029304029302	101.91723879079868	28.643591538682813	
1.5796023734925537E12	1.0	11.254483031486517	88.85348151508278	1744.3223443223442	101.91723879079868	28.643591538682813	
1.579602373512085E12	1.0	11.259588263072583	88.81319428700975	1742.8571428571427	101.91723879079868	28.643591538682813	
1.5796023735316162E12	1.0	11.259588263072583	88.81319428700975	1727.4725274725274	101.92807454670451	28.643591538682813	
1.5796023735511475E12	1.0	11.264693494658651	88.77294357579878	1694.5054945054944	101.91723879079868	28.643591538682813	
1.5796023735706787E12	1.0	11.26979872624472	88.73272933182332	1660.8058608058607	101.92807454670451	28.643591538682813	
1.57960237359021E12	1.0	11.26979872624472	88.73272933182332	1704.7619047619046	101.91994772598983	28.643591538682813	
1.5796023736097412E12	1.0	11.274903957830787	88.69255150554675	1727.4725274725274	101.91723879079868	28.643591538682813	
1.5796023736292725E12	1.0	11.274903957830787	88.69255150554675	1737.7289377289376	101.91723879079868	28.643591538682813	
1.5796023736488037E12	1.0	11.274903957830787	88.69255150554675	1730.4029304029302	101.91994772598983	28.643591538682813	
1.579602373668335E12	1.0	11.274903957830787	88.69255150554675	1715.7509157509157	101.91994772598983	28.643591538682813	
1.5796023736878662E12	1.0	11.274903957830787	88.69255150554675	1730.4029304029302	101.91723879079868	28.643591538682813	
1.5796023737073975E12	1.0	11.280009189416853	88.65241004752207	1741.3919413919414	101.91723879079868	28.643591538682813	
1.5796023737269287E12	1.0	11.280009189416853	88.65241004752207	1745.054945054945	101.91994772598983	28.643591538682813	
1.57960237374646E12	1.0	11.285114421002922	88.61230490839176	1784.6153846153845	101.91994772598983	28.643591538682813	
1.5796023737659912E12	1.0	11.280009189416853	88.65241004752207	1810.2564102564102	101.92265666370453	28.643591538682813	
1.5796023737855225E12	1.0	11.280009189416853	88.65241004752207	1801.4652014652013	101.91994772598983	28.643591538682813	
1.5796023738050537E12	1.0	11.285114421002922	88.61230490839176	1778.7545787545787	101.92077523122768	28.648518196120857	
1.579602373824585E12	1.0	11.285114421002922	88.61230490839176	1770.6959706959706	101.92077523122768	28.648518196120857	
1.5796023738441162E12	1.0	11.285114421002922	88.61230490839176	1770.6959706959706	101.92077523122768	28.648518196120857	
1.5796023738636475E12	1.0	11.285114421002922	88.61230490839176	1770.6959706959706	101.91535732001512	28.648518196120857	
1.5796023738831787E12	1.0	11.285114421002922	88.61230490839176	1772.161172161172	101.92348419061933	28.648518196120857	
1.57960237390271E12	1.0	11.280009189416853	88.65241004752207	1776.5567765567764	101.92619315253454	28.648518196120857	
1.5796023739222412E12	1.0	11.280009189416853	88.65241004752207	1763.3699633699632	101.92348419061933	28.648518196120857	
1.5796023739417725E12	1.0	11.280009189416853	88.65241004752207	1759.7069597069597	101.92348419061933	28.648518196120857	
1.5796023739613037E12	1.0	11.280009189416853	88.65241004752207	1757.5091575091574	101.91806627435962	28.648518196120857	
1.579602373980835E12	1.0	11.280009189416853	88.65241004752207	1761.9047619047617	101.91535732001512	28.648518196120857	
1.5796023740003662E12	1.0	11.280009189416853	88.65241004752207	1767.7655677655675	101.91806627435962	28.648518196120857	
1.5796023740198975E12	1.0	11.274903957830787	88.69255150554675	1776.5567765567764	101.92348419061933	28.648518196120857	
1.5796023740394287E12	1.0	11.274903957830787	88.69255150554675	1790.4761904761904	101.92348419061933	28.648518196120857	
1.57960237405896E12	1.0	11.274903957830787	88.69255150554675	1800.7326007326005	101.92077523122768	28.648518196120857	
1.5796023740784912E12	1.0	11.26979872624472	88.73272933182332	1837.3626373626373	101.91535732001512	28.648518196120857	
1.5796023740980225E12	1.0	11.264693494658651	88.77294357579878	1842.4908424908424	101.92077523122768	28.648518196120857	
1.5796023741175537E12	1.0	11.26979872624472	88.73272933182332	1750.18315018315	101.92077523122768	28.648518196120857	
1.579602374137085E12	1.0	11.26979872624472	88.73272933182332	1724.5421245421244	101.91535732001512	28.648518196120857	
1.5796023741566162E12	1.0	11.264693494658651	88.77294357579878	1717.216117216117	101.91535732001512	28.648518196120857	
1.5796023741761475E12	1.0	11.264693494658651	88.77294357579878	1716.4835164835163	101.92619315253454	28.648518196120857	
1.5796023741956787E12	1.0	11.259588263072583	88.81319428700975	1709.8901098901097	101.92619315253454	28.648518196120857	
1.57960237421521E12	1.0	11.259588263072583	88.81319428700975	1699.6336996336995	101.91806627435962	28.648518196120857	
1.5796023742347412E12	1.0	11.254483031486517	88.85348151508278	1706.9597069597069	101.91806627435962	28.648518196120857	
1.5796023742542725E12	1.0	11.254483031486517	88.85348151508278	1728.2051282051282	101.92619315253454	28.648518196120857	
1.5796023742738037E12	1.0	11.254483031486517	88.85348151508278	1738.4615384615383	101.91535732001512	28.648518196120857	
1.579602374293335E12	1.0	11.249377799900447	88.89380530973452	1747.985347985348	101.91806627435962	28.648518196120857	
1.5796023743128662E12	1.0	11.239167336728313	88.97456279809221	1749.4505494505493	101.92077523122768	28.648518196120857	
1.5796023743323975E12	1.0	11.234062105142243	89.01499659168371	1743.5897435897434	101.91535732001512	28.648518196120857	
1.5796023743519287E12	1.0	11.228956873556177	89.05546715162536	1738.4615384615383	101.91806627435962	28.648518196120857	
1.57960237437146E12	1.0	11.223851641970109	89.09597452808732	1737.7289377289376	101.91264836819417	28.648518196120857	
1.5796023743909912E12	1.0	11.213641178797973	89.17709993170953	1736.9963369963368	101.92077523122768	28.648518196120857	
1.5796023744105225E12	1.0	11.208535947211905	89.2177180596675	1734.7985347985348	101.92077523122768	28.648518196120857	
1.5796023744300537E12	1.0	11.203430715625839	89.25837320574162	1726.7399267399267	101.92348419061933	28.648518196120857	
1.579602374449585E12	1.0	11.19832548403977	89.29906542056074	1727.4725274725274	101.91806627435962	28.648518196120857	
1.5796023744691162E12	1.0	11.193220252453703	89.33979475484607	1736.9963369963368	101.91806627435962	28.648518196120857	
1.5796023744886475E12	1.0	11.188115020867636	89.38056125941135	1767.7655677655675	101.92077523122768	28.648518196120857	
1.5796023745081787E12	1.0	11.183009789281568	89.4213649851632	1799.9999999999998	101.91535732001512	28.648518196120857	
1.57960237452771E12	1.0	11.183009789281568	89.4213649851632	1811.7216117216117	101.92619315253454	28.648518196120857	
1.5796023745472412E12	1.0	11.167694094523364	89.544	1783.150183150183	101.92077523122768	28.648518196120857	
1.5796023745667725E12	1.0	11.162588862937296	89.58495312142693	1750.9157509157508	101.92077523122768	28.648518196120857	
1.5796023745863037E12	1.0	11.157483631351228	89.62594371997254	1731.8681318681317	101.91806627435962	28.648518196120857	
1.579602374605835E12	1.0	11.147273168179092	89.70803755438516	1723.0769230769229	101.91535732001512	28.648518196120857	
1.5796023746253662E12	1.0	11.137062705006956	89.79028191611276	1721.6117216117216	101.92077523122768	28.648518196120857	
1.5796023746448975E12	1.0	11.121747010248752	89.9139316043149	1717.9487179487178	101.92890211697333	28.648518196120857	
1.5796023746644287E12	1.0	11.111536547076616	89.99655410062026	1720.8791208791208	101.92077523122768	28.648518196120857	
1.57960237468396E12	1.0	11.106431315490548	90.0379223167088	1723.0769230769229	101.92077523122768	28.648518196120857	
1.5796023747034912E12	1.0	11.111536547076616	89.99655410062026	1738.4615384615383	101.91806627435962	28.648518196120857	
1.5796023747230225E12	1.0	11.091115620732346	90.16225546605293	1745.054945054945	101.91535732001512	28.648518196120857	
1.5796023747425537E12	1.0	11.08090515756021	90.24533517622667	1736.9963369963368	101.91806627435962	28.648518196120857	
1.579602374762085E12	1.0	11.065589462802008	90.37024221453287	1719.4139194139193	101.91535732001512	28.648518196120857	
1.5796023747816162E12	1.0	11.06048423121594	90.4119547657512	1709.8901098901097	101.92077523122768	28.648518196120857	
1.5796023748011475E12	1.0	11.050273768043803	90.49549549549549	1694.5054945054944	101.92325776325724	28.663298170181225	
1.5796023748206787E12	1.0	11.040063304871667	90.57919075144508	1678.3882783882782	101.92054874135816	28.663298170181225	
1.57960237484021E12	1.0	11.029852841699533	90.6630409627401	1657.142857142857	101.92325776325724	28.663298170181225	
1.5796023748597412E12	1.0	11.019642378527399	90.74704656011117	1632.2344322344322	101.92596678768001	28.663298170181225	
1.5796023748792725E12	1.0	11.019642378527399	90.74704656011117	1613.9194139194137	101.92325776325724	28.663298170181225	
1.5796023748988037E12	1.0	11.019642378527399	90.74704656011117	1609.5238095238094	101.92054874135816	28.663298170181225	
1.579602374918335E12	1.0	11.019642378527399	90.74704656011117	1612.4542124542124	101.92325776325724	28.663298170181225	
1.5796023749378662E12	1.0	11.019642378527399	90.74704656011117	1622.7106227106226	101.92325776325724	28.663298170181225	
1.5796023749573975E12	1.0	11.034958073285601	90.62109646079111	1635.8974358974358	101.91783972198276	28.663298170181225	
1.5796023749769287E12	1.0	11.029852841699533	90.6630409627401	1667.3992673992673	101.92054874135816	28.663298170181225	
1.57960237499646E12	1.0	11.034958073285601	90.62109646079111	1684.249084249084	101.91513070513105	28.663298170181225	
1.5796023750159912E12	1.0	11.029852841699533	90.6630409627401	1682.7838827838827	101.92325776325724	28.663298170181225	
1.5796023750355225E12	1.0	11.024747610113465	90.70502431118314	1680.5860805860805	101.92325776325724	28.663298170181225	
1.5796023750550537E12	1.0	11.01453714694133	90.78910776361529	1670.3296703296703	101.92325776325724	28.663298170181225	
1.579602375074585E12	1.0	11.01453714694133	90.78910776361529	1660.8058608058607	101.92325776325724	28.663298170181225	
1.5796023750941162E12	1.0	11.019642378527399	90.74704656011117	1656.4102564102564	101.9313848440966	28.663298170181225	
1.5796023751136475E12	1.0	11.019642378527399	90.74704656011117	1653.4798534798533	101.92054874135816	28.663298170181225	
1.5796023751331787E12	1.0	11.024747610113465	90.70502431118314	1651.2820512820513	101.92325776325724	28.663298170181225	
1.57960237515271E12	1.0	11.029852841699533	90.6630409627401	1654.9450549450548	101.92325776325724	28.663298170181225	
1.5796023751722412E12	1.0	11.029852841699533	90.6630409627401	1657.8754578754579	101.92054874135816	28.663298170181225	
1.5796023751917725E12	1.0	11.034958073285601	90.62109646079111	1656.4102564102564	101.92325776325724	28.663298170181225	
1.5796023752113037E12	1.0	11.034958073285601	90.62109646079111	1652.0146520146518	101.92054874135816	28.663298170181225	
1.579602375230835E12	1.0	11.040063304871667	90.57919075144508	1651.2820512820513	101.92596678768001	28.663298170181225	
1.5796023752503662E12	1.0	11.040063304871667	90.57919075144508	1654.212454212454	101.92054874135816	28.663298170181225	
1.5796023752698975E12	1.0	11.045168536457735	90.53732378091055	1651.2820512820513	101.92054874135816	28.663298170181225	
1.5796023752894287E12	1.0	11.045168536457735	90.53732378091055	1641.0256410256409	101.91783972198276	28.663298170181225	
1.57960237530896E12	1.0	11.040063304871667	90.57919075144508	1621.9780219780218	101.91783972198276	28.663298170181225	
1.5796023753284912E12	1.0	11.050273768043803	90.49549549549549	1616.8498168498168	101.92325776325724	28.663298170181225	
1.5796023753480225E12	1.0	11.065589462802008	90.37024221453287	1635.8974358974358	101.91783972198276	28.663298170181225	
1.5796023753675537E12	1.0	11.070694694388076	90.32856813465528	1653.4798534798533	101.91783972198276	28.663298170181225	
1.579602375387085E12	1.0	11.08090515756021	90.24533517622667	1665.201465201465	101.92054874135816	28.663298170181225	
1.5796023754066162E12	1.0	11.08090515756021	90.24533517622667	1666.6666666666665	101.92596678768001	28.663298170181225	
1.5796023754261475E12	1.0	11.086010389146278	90.20377619157264	1664.4688644688645	101.92596678768001	28.663298170181225	
1.5796023754456787E12	1.0	11.086010389146278	90.20377619157264	1664.4688644688645	101.91783972198276	28.663298170181225	
1.57960237546521E12	1.0	11.091115620732346	90.16225546605293	1665.9340659340658	101.91513070513105	28.663298170181225	
1.5796023754847412E12	1.0	11.096220852318414	90.1207729468599	1670.3296703296703	101.91783972198276	28.663298170181225	
1.5796023755042725E12	1.0	11.096220852318414	90.1207729468599	1666.6666666666665	101.92325776325724	28.663298170181225	
1.5796023755238037E12	1.0	11.096220852318414	90.1207729468599	1660.8058608058607	101.92325776325724	28.663298170181225	
1.579602375543335E12	1.0	11.101326083904482	90.07932858128305	1659.3406593406592	101.92325776325724	28.663298170181225	
1.5796023755628662E12	1.0	11.101326083904482	90.07932858128305	1661.5384615384614	101.92596678768001	28.663298170181225	
1.5796023755823975E12	1.0	11.106431315490548	90.0379223167088	1663.003663003663	101.92054874135816	28.663298170181225	
1.5796023756019287E12	1.0	11.111536547076616	89.99655410062026	1664.4688644688645	101.92054874135816	28.663298170181225	
1.57960237562146E12	1.0	11.111536547076616	89.99655410062026	1667.3992673992673	101.92596678768001	28.663298170181225	
1.5796023756409912E12	1.0	11.111536547076616	89.99655410062026	1667.3992673992673	101.92054874135816	28.663298170181225	
1.5796023756605225E12	1.0	11.116641778662686	89.955223880597	1669.5970695970695	101.92325776325724	28.663298170181225	
1.5796023756800537E12	1.0	11.121747010248752	89.9139316043149	1674.7252747252746	101.92054874135816	28.663298170181225	
1.579602375699585E12	1.0	11.12685224183482	89.87267721954576	1684.249084249084	101.92325776325724	28.663298170181225	
1.5796023757191162E12	1.0	11.131957473420888	89.8314606741573	1690.8424908424906	101.92054874135816	28.663298170181225	
1.5796023757386475E12	1.0	11.12685224183482	89.87267721954576	1688.6446886446886	101.91513070513105	28.663298170181225	
1.5796023757581787E12	1.0	11.12685224183482	89.87267721954576	1676.1904761904761	101.92325776325724	28.663298170181225	
1.57960237577771E12	1.0	11.12685224183482	89.87267721954576	1670.3296703296703	101.91242169080301	28.663298170181225	
1.5796023757972412E12	1.0	11.131957473420888	89.8314606741573	1673.260073260073	101.91324912020937	28.668224828783423	
1.5796023758167725E12	1.0	11.131957473420888	89.8314606741573	1679.120879120879	101.91595815621437	28.668224828783423	
1.5796023758363037E12	1.0	11.131957473420888	89.8314606741573	1680.5860805860805	101.91866719474311	28.668224828783423	
1.579602375855835E12	1.0	11.12685224183482	89.87267721954576	1675.4578754578754	101.92408527937174	28.668224828783423	
1.5796023758753662E12	1.0	11.121747010248752	89.9139316043149	1665.201465201465	101.92137623579555	28.668224828783423	
1.5796023758948975E12	1.0	11.12685224183482	89.87267721954576	1660.07326007326	101.92950337409526	28.668224828783423	
1.5796023759144287E12	1.0	11.111536547076616	89.99655410062026	1665.201465201465	101.92408527937174	28.668224828783423	
1.57960237593396E12	1.0	11.131957473420888	89.8314606741573	1675.4578754578754	101.91866719474311	28.668224828783423	
1.5796023759534912E12	1.0	11.131957473420888	89.8314606741573	1684.9816849816848	101.91866719474311	28.668224828783423	
1.5796023759730225E12	1.0	11.131957473420888	89.8314606741573	1682.051282051282	101.92679432547162	28.668224828783423	
1.5796023759925537E12	1.0	11.12685224183482	89.87267721954576	1682.7838827838827	101.91866719474311	28.668224828783423	
1.579602376012085E12	1.0	11.131957473420888	89.8314606741573	1687.179487179487	101.92408527937174	28.668224828783423	
1.5796023760316162E12	1.0	11.12685224183482	89.87267721954576	1687.179487179487	101.92408527937174	28.668224828783423	
1.5796023760511475E12	1.0	11.121747010248752	89.9139316043149	1682.051282051282	101.91866719474311	28.668224828783423	
1.5796023760706787E12	1.0	11.121747010248752	89.9139316043149	1680.5860805860805	101.92408527937174	28.668224828783423	
1.57960237609021E12	1.0	11.121747010248752	89.9139316043149	1672.5274725274724	101.92679432547162	28.668224828783423	
1.5796023761097412E12	1.0	11.121747010248752	89.9139316043149	1684.249084249084	101.92679432547162	28.668224828783423	
1.5796023761292725E12	1.0	11.121747010248752	89.9139316043149	1693.7728937728937	101.92408527937174	28.668224828783423	
1.5796023761488037E12	1.0	11.121747010248752	89.9139316043149	1702.5641025641025	101.92679432547162	28.668224828783423	
1.579602376168335E12	1.0	11.116641778662686	89.955223880597	1706.227106227106	101.91866719474311	28.668224828783423	
1.5796023761878662E12	1.0	11.116641778662686	89.955223880597	1701.098901098901	101.92408527937174	28.668224828783423	
1.5796023762073975E12	1.0	11.111536547076616	89.99655410062026	1695.2380952380952	101.92408527937174	28.668224828783423	
1.5796023762269287E12	1.0	11.106431315490548	90.0379223167088	1690.10989010989	101.92408527937174	28.668224828783423	
1.57960237624646E12	1.0	11.101326083904482	90.07932858128305	1677.6556776556774	101.92137623579555	28.668224828783423	
1.5796023762659912E12	1.0	11.101326083904482	90.07932858128305	1667.3992673992673	101.92679432547162	28.668224828783423	
1.5796023762855225E12	1.0	11.096220852318414	90.1207729468599	1660.07326007326	101.92408527937174	28.668224828783423	
1.5796023763050537E12	1.0	11.096220852318414	90.1207729468599	1648.3516483516482	101.91595815621437	28.668224828783423	
1.579602376324585E12	1.0	11.091115620732346	90.16225546605293	1657.142857142857	101.92137623579555	28.668224828783423	
1.5796023763441162E12	1.0	11.075799925974144	90.28693247292001	1630.03663003663	101.92137623579555	28.668224828783423	
1.5796023763636475E12	1.0	11.070694694388076	90.32856813465528	1604.3956043956043	101.92950337409526	28.668224828783423	
1.5796023763831787E12	1.0	11.075799925974144	90.28693247292001	1614.6520146520145	101.92137623579555	28.668224828783423	
1.57960237640271E12	1.0	11.070694694388076	90.32856813465528	1631.5018315018315	101.92137623579555	28.668224828783423	
1.5796023764222412E12	1.0	11.070694694388076	90.32856813465528	1624.9084249084249	101.92408527937174	28.668224828783423	
1.5796023764417725E12	1.0	11.070694694388076	90.32856813465528	1627.106227106227	101.91866719474311	28.668224828783423	
1.5796023764613037E12	1.0	11.065589462802008	90.37024221453287	1638.8278388278386	101.92137623579555	28.668224828783423	
1.579602376480835E12	1.0	11.06048423121594	90.4119547657512	1630.03663003663	101.91866719474311	28.668224828783423	
1.5796023765003662E12	1.0	11.06048423121594	90.4119547657512	1638.095238095238	101.92137623579555	28.668224828783423	
1.5796023765198975E12	1.0	11.06048423121594	90.4119547657512	1664.4688644688645	101.91866719474311	28.668224828783423	
1.5796023765394287E12	1.0	11.050273768043803	90.49549549549549	1669.5970695970695	101.92137623579555	28.668224828783423	
1.57960237655896E12	1.0	11.045168536457735	90.53732378091055	1649.084249084249	101.91595815621437	28.668224828783423	
1.5796023765784912E12	1.0	11.040063304871667	90.57919075144508	1647.6190476190475	101.92408527937174	28.668224828783423	
1.5796023765980225E12	1.0	11.034958073285601	90.62109646079111	1635.164835164835	101.91866719474311	28.668224828783423	
1.5796023766175537E12	1.0	11.024747610113465	90.70502431118314	1615.3846153846152	101.92408527937174	28.668224828783423	
1.579602376637085E12	1.0	11.024747610113465	90.70502431118314	1591.9413919413919	101.92408527937174	28.668224828783423	
1.5796023766566162E12	1.0	11.019642378527399	90.74704656011117	1582.4175824175823	101.91866719474311	28.668224828783423	
1.5796023766761475E12	1.0	11.019642378527399	90.74704656011117	1575.8241758241757	101.92137623579555	28.668224828783423	
1.5796023766956787E12	1.0	11.009431915355263	90.83120797588684	1574.3589743589744	101.92408527937174	28.668224828783423	
1.57960237671521E12	1.0	11.009431915355263	90.83120797588684	1583.8827838827838	101.92408527937174	28.668224828783423	
1.5796023767347412E12	1.0	11.009431915355263	90.83120797588684	1603.6630036630036	101.92408527937174	28.668224828783423	
1.5796023767542725E12	1.0	10.994116220597057	90.95774320872997	1619.7802197802196	101.92137623579555	28.668224828783423	
1.5796023767738037E12	1.0	10.989010989010989	90.99999999999999	1619.7802197802196	101.92408527937174	28.668224828783423	
1.579602376793335E12	1.0	10.989010989010989	90.99999999999999	1619.047619047619	101.92491279820487	28.67315148767666	
1.5796023768128662E12	1.0	10.994116220597057	90.95774320872997	1616.117216117216	101.92762186598198	28.67315148767666	
1.5796023768323975E12	1.0	10.989010989010989	90.99999999999999	1612.4542124542124	101.92491279820487	28.67315148767666	
1.5796023768519287E12	1.0	10.983905757424923	91.04229607250754	1621.9780219780218	101.92220373295154	28.67315148767666	
1.57960237687146E12	1.0	10.983905757424923	91.04229607250754	1619.7802197802196	101.92491279820487	28.67315148767666	
1.5796023768909912E12	1.0	10.978800525838855	91.0846314810509	1616.117216117216	101.92762186598198	28.67315148767666	
1.5796023769105225E12	1.0	10.973695294252785	91.12700628053035	1612.4542124542124	101.93304000910744	28.67315148767666	
1.5796023769300537E12	1.0	10.968590062666719	91.16942052594833	1601.4652014652013	101.92491279820487	28.67315148767666	
1.579602376949585E12	1.0	10.968590062666719	91.16942052594833	1602.9304029304028	101.92491279820487	28.67315148767666	
1.5796023769691162E12	1.0	10.96348483108065	91.21187427240977	1607.3260073260071	101.92762186598198	28.67315148767666	
1.5796023769886475E12	1.0	10.958379599494583	91.25436757512229	1610.2564102564102	101.92220373295154	28.67315148767666	
1.5796023770081787E12	1.0	10.958379599494583	91.25436757512229	1600.0	101.92491279820487	28.67315148767666	
1.57960237702771E12	1.0	10.953274367908515	91.2969004893964	1590.4761904761904	101.92491279820487	28.67315148767666	
1.5796023770472412E12	1.0	10.953274367908515	91.2969004893964	1597.069597069597	101.9167856100162	28.67315148767666	
1.5796023770667725E12	1.0	10.948169136322448	91.33947307064582	1626.3736263736262	101.92762186598198	28.67315148767666	
1.5796023770863037E12	1.0	10.948169136322448	91.33947307064582	1653.4798534798533	101.92220373295154	28.67315148767666	
1.579602377105835E12	1.0	10.94306390473638	91.38208537438767	1647.6190476190475	101.92491279820487	28.67315148767666	
1.5796023771253662E12	1.0	10.937958673150312	91.4247374562427	1621.9780219780218	101.919494670222	28.67315148767666	
1.5796023771448975E12	1.0	10.932853441564244	91.46742937193555	1600.0	101.919494670222	28.67315148767666	
1.5796023771644287E12	1.0	10.927748209978176	91.51016117729502	1589.7435897435896	101.9167856100162	28.67315148767666	
1.57960237718396E12	1.0	10.927748209978176	91.51016117729502	1594.8717948717947	101.92220373295154	28.67315148767666	
1.5796023772034912E12	1.0	10.927748209978176	91.51016117729502	1600.7326007326005	101.92220373295154	28.67315148767666	
1.5796023772230225E12	1.0	10.922642978392108	91.55293292825425	1599.2673992673992	101.92491279820487	28.67315148767666	
1.5796023772425537E12	1.0	10.922642978392108	91.55293292825425	1595.6043956043954	101.92220373295154	28.67315148767666	
1.579602377262085E12	1.0	10.922642978392108	91.55293292825425	1592.6739926739926	101.919494670222	28.67315148767666	
1.5796023772816162E12	1.0	10.91753774680604	91.59574468085106	1589.7435897435896	101.92220373295154	28.67315148767666	
1.5796023773011475E12	1.0	10.91753774680604	91.59574468085106	1587.5457875457873	101.92762186598198	28.67315148767666	
1.5796023773206787E12	1.0	10.91753774680604	91.59574468085106	1583.8827838827838	101.92491279820487	28.67315148767666	
1.57960237734021E12	1.0	10.912432515219974	91.63859649122806	1570.6959706959706	101.92491279820487	28.67315148767666	
1.5796023773597412E12	1.0	10.902222052047838	91.7244205104191	1560.4395604395604	101.9167856100162	28.67315148767666	
1.5796023773792725E12	1.0	10.892011588875699	91.81040543707525	1572.161172161172	101.92491279820487	28.67315148767666	
1.5796023773988037E12	1.0	10.89711682046177	91.76739283204496	1579.4871794871794	101.919494670222	28.67315148767666	
1.579602377418335E12	1.0	10.89711682046177	91.76739283204496	1583.150183150183	101.93033093628281	28.67315148767666	
1.5796023774378662E12	1.0	10.89711682046177	91.76739283204496	1586.080586080586	101.919494670222	28.67315148767666	
1.5796023774573975E12	1.0	10.89711682046177	91.76739283204496	1585.3479853479853	101.92491279820487	28.67315148767666	
1.5796023774769287E12	1.0	10.902222052047838	91.7244205104191	1581.6849816849815	101.92220373295154	28.67315148767666	
1.57960237749646E12	1.0	10.902222052047838	91.7244205104191	1582.4175824175823	101.919494670222	28.67315148767666	
1.5796023775159912E12	1.0	10.907327283633906	91.68148841563303	1584.6153846153845	101.92491279820487	28.67315148767666	
1.5796023775355225E12	1.0	10.907327283633906	91.68148841563303	1590.4761904761904	101.92491279820487	28.67315148767666	
1.5796023775550537E12	1.0	10.912432515219974	91.63859649122806	1591.2087912087911	101.92491279820487	28.67315148767666	
1.579602377574585E12	1.0	10.91753774680604	91.59574468085106	1576.5567765567764	101.92491279820487	28.67315148767666	
1.5796023775941162E12	1.0	10.91753774680604	91.59574468085106	1584.6153846153845	101.93033093628281	28.67315148767666	
1.5796023776136475E12	1.0	10.922642978392108	91.55293292825425	1592.6739926739926	101.919494670222	28.67315148767666	
1.5796023776331787E12	1.0	10.907327283633906	91.68148841563303	1594.8717948717947	101.92491279820487	28.67315148767666	
1.57960237765271E12	1.0	10.922642978392108	91.55293292825425	1600.7326007326005	101.92491279820487	28.67315148767666	
1.5796023776722412E12	1.0	10.922642978392108	91.55293292825425	1608.7912087912086	101.93033093628281	28.67315148767666	
1.5796023776917725E12	1.0	10.922642978392108	91.55293292825425	1611.7216117216117	101.93033093628281	28.67315148767666	
1.5796023777113037E12	1.0	10.927748209978176	91.51016117729502	1612.4542124542124	101.92491279820487	28.67315148767666	
1.579602377730835E12	1.0	10.927748209978176	91.51016117729502	1610.989010989011	101.919494670222	28.67315148767666	
1.5796023777503662E12	1.0	10.927748209978176	91.51016117729502	1606.5934065934066	101.92762186598198	28.67315148767666	
1.5796023777698975E12	1.0	10.927748209978176	91.51016117729502	1601.4652014652013	101.92491279820487	28.67315148767666	
1.5796023777894287E12	1.0	10.927748209978176	91.51016117729502	1602.197802197802	101.92574031975647	28.678078146860933	
1.57960237780896E12	1.0	10.927748209978176	91.51016117729502	1602.9304029304028	101.92844940921078	28.678078146860933	
1.5796023778284912E12	1.0	10.932853441564244	91.46742937193555	1602.197802197802	101.93386759569083	28.678078146860933	
1.5796023778480225E12	1.0	10.927748209978176	91.51016117729502	1602.197802197802	101.92844940921078	28.678078146860933	
1.5796023778675537E12	1.0	10.932853441564244	91.46742937193555	1601.4652014652013	101.93115850118892	28.678078146860933	
1.579602377887085E12	1.0	10.932853441564244	91.46742937193555	1600.7326007326005	101.92844940921078	28.678078146860933	
1.5796023779066162E12	1.0	10.932853441564244	91.46742937193555	1605.128205128205	101.93115850118892	28.678078146860933	
1.5796023779261475E12	1.0	10.932853441564244	91.46742937193555	1599.2673992673992	101.92303123282596	28.678078146860933	
1.5796023779456787E12	1.0	10.937958673150312	91.4247374562427	1593.4065934065934	101.92574031975647	28.678078146860933	
1.57960237796521E12	1.0	10.937958673150312	91.4247374562427	1595.6043956043954	101.92303123282596	28.678078146860933	
1.5796023779847412E12	1.0	10.948169136322448	91.33947307064582	1601.4652014652013	101.92844940921078	28.678078146860933	
1.5796023780042725E12	1.0	10.937958673150312	91.4247374562427	1608.058608058608	101.93386759569083	28.678078146860933	
1.5796023780238037E12	1.0	10.94306390473638	91.38208537438767	1609.5238095238094	101.93386759569083	28.678078146860933	
1.579602378043335E12	1.0	10.937958673150312	91.4247374562427	1604.3956043956043	101.92844940921078	28.678078146860933	
1.5796023780628662E12	1.0	10.937958673150312	91.4247374562427	1602.197802197802	101.92303123282596	28.678078146860933	
1.5796023780823975E12	1.0	10.937958673150312	91.4247374562427	1601.4652014652013	101.92844940921078	28.678078146860933	
1.5796023781019287E12	1.0	10.937958673150312	91.4247374562427	1599.2673992673992	101.93657669271657	28.678078146860933	
1.57960237812146E12	1.0	10.937958673150312	91.4247374562427	1603.6630036630036	101.93115850118892	28.678078146860933	
1.5796023781409912E12	1.0	10.932853441564244	91.46742937193555	1605.128205128205	101.93115850118892	28.678078146860933	
1.5796023781605225E12	1.0	10.937958673150312	91.4247374562427	1601.4652014652013	101.92574031975647	28.678078146860933	
1.5796023781800537E12	1.0	10.932853441564244	91.46742937193555	1599.2673992673992	101.92574031975647	28.678078146860933	
1.579602378199585E12	1.0	10.932853441564244	91.46742937193555	1597.069597069597	101.92032214841925	28.678078146860933	
1.5796023782191162E12	1.0	10.932853441564244	91.46742937193555	1598.5347985347985	101.92574031975647	28.678078146860933	
1.5796023782386475E12	1.0	10.937958673150312	91.4247374562427	1598.5347985347985	101.93115850118892	28.678078146860933	
1.5796023782581787E12	1.0	10.932853441564244	91.46742937193555	1600.0	101.93386759569083	28.678078146860933	
1.57960237827771E12	1.0	10.932853441564244	91.46742937193555	1595.6043956043954	101.92844940921078	28.678078146860933	
1.5796023782972412E12	1.0	10.932853441564244	91.46742937193555	1592.6739926739926	101.92844940921078	28.678078146860933	
1.5796023783167725E12	1.0	10.927748209978176	91.51016117729502	1594.8717948717947	101.93657669271657	28.678078146860933	
1.5796023783363037E12	1.0	10.922642978392108	91.55293292825425	1599.2673992673992	101.93386759569083	28.678078146860933	
1.579602378355835E12	1.0	10.927748209978176	91.51016117729502	1598.5347985347985	101.93115850118892	28.678078146860933	
1.5796023783753662E12	1.0	10.922642978392108	91.55293292825425	1597.069597069597	101.92574031975647	28.678078146860933	
1.5796023783948975E12	1.0	10.922642978392108	91.55293292825425	1619.047619047619	101.92844940921078	28.678078146860933	
1.5796023784144287E12	1.0	10.922642978392108	91.55293292825425	1603.6630036630036	101.92574031975647	28.678078146860933	
1.57960237843396E12	1.0	10.922642978392108	91.55293292825425	1599.2673992673992	101.92303123282596	28.678078146860933	
1.5796023784534912E12	1.0	10.91753774680604	91.59574468085106	1600.0	101.92574031975647	28.678078146860933	
1.5796023784730225E12	1.0	10.912432515219974	91.63859649122806	1600.0	101.92574031975647	28.678078146860933	
1.5796023784925537E12	1.0	10.91753774680604	91.59574468085106	1596.3369963369962	101.92574031975647	28.678078146860933	
1.579602378512085E12	1.0	10.912432515219974	91.63859649122806	1600.0	101.92032214841925	28.678078146860933	
1.5796023785316162E12	1.0	10.912432515219974	91.63859649122806	1595.6043956043954	101.92844940921078	28.678078146860933	
1.5796023785511475E12	1.0	10.912432515219974	91.63859649122806	1593.4065934065934	101.92032214841925	28.678078146860933	
1.5796023785706787E12	1.0	10.907327283633906	91.68148841563303	1591.9413919413919	101.92574031975647	28.678078146860933	
1.57960237859021E12	1.0	10.907327283633906	91.68148841563303	1593.4065934065934	101.92303123282596	28.678078146860933	
1.5796023786097412E12	1.0	10.902222052047838	91.7244205104191	1593.4065934065934	101.92303123282596	28.678078146860933	
1.5796023786292725E12	1.0	10.907327283633906	91.68148841563303	1590.4761904761904	101.93115850118892	28.678078146860933	
1.5796023786488037E12	1.0	10.89711682046177	91.76739283204496	1594.139194139194	101.92303123282596	28.678078146860933	
1.579602378668335E12	1.0	10.89711682046177	91.76739283204496	1590.4761904761904	101.92303123282596	28.678078146860933	
1.5796023786878662E12	1.0	10.89711682046177	91.76739283204496	1589.0109890109889	101.92032214841925	28.678078146860933	
1.5796023787073975E12	1.0	10.892011588875699	91.81040543707525	1586.080586080586	101.92574031975647	28.678078146860933	
1.5796023787269287E12	1.0	10.892011588875699	91.81040543707525	1579.4871794871794	101.92574031975647	28.678078146860933	
1.57960237874646E12	1.0	10.886906357289632	91.85345838218055	1579.4871794871794	101.92032214841925	28.678078146860933	
1.5796023787659912E12	1.0	10.886906357289632	91.85345838218055	1715.018315018315	101.92574031975647	28.678078146860933	
1.5796023787855225E12	1.0	10.881801125703563	91.89655172413795	1775.091575091575	101.92739537101407	28.6879314661026	
1.5796023788050537E12	1.0	10.881801125703563	91.89655172413795	1799.9999999999998	101.92197711296787	28.6879314661026	
1.579602378824585E12	1.0	10.876695894117494	91.93968551983104	1819.047619047619	101.93010450382299	28.6879314661026	
1.5796023788441162E12	1.0	10.871590662531428	91.9828598262503	1835.164835164835	101.92197711296787	28.6879314661026	
1.5796023788636475E12	1.0	10.866485430945362	92.02607470049331	1840.2930402930401	101.92468624072903	28.6879314661026	
1.5796023788831787E12	1.0	10.871590662531428	91.9828598262503	1846.153846153846	101.92739537101407	28.6879314661026	
1.57960237890271E12	1.0	10.866485430945362	92.02607470049331	1843.2234432234432	101.92739537101407	28.6879314661026	
1.5796023789222412E12	1.0	10.866485430945362	92.02607470049331	1836.6300366300366	101.92739537101407	28.6879314661026	
1.5796023789417725E12	1.0	10.861380199359292	92.06933019976499	1832.9670329670328	101.92739537101407	28.6879314661026	
1.5796023789613037E12	1.0	10.856274967773224	92.11262638137786	1828.5714285714284	101.93010450382299	28.6879314661026	
1.579602378980835E12	1.0	10.851169736187156	92.15596330275231	1827.106227106227	101.93010450382299	28.6879314661026	
1.5796023790003662E12	1.0	10.851169736187156	92.15596330275231	1822.7106227106226	101.92739537101407	28.6879314661026	
1.5796023790198975E12	1.0	10.84606450460109	92.19934102141681	1823.4432234432234	101.92197711296787	28.6879314661026	
1.5796023790394287E12	1.0	10.84606450460109	92.19934102141681	1825.6410256410254	101.92739537101407	28.6879314661026	
1.57960237905896E12	1.0	10.84606450460109	92.19934102141681	1826.3736263736262	101.92739537101407	28.6879314661026	
1.5796023790784912E12	1.0	10.835854041428952	92.2862190812721	1827.8388278388277	101.9192679877306	28.6879314661026	
1.5796023790980225E12	1.0	10.835854041428952	92.2862190812721	1825.6410256410254	101.92739537101407	28.6879314661026	
1.5796023791175537E12	1.0	10.835854041428952	92.2862190812721	1824.9084249084249	101.92739537101407	28.6879314661026	
1.579602379137085E12	1.0	10.830748809842884	92.3297195380627	1824.1758241758241	101.92197711296787	28.6879314661026	
1.5796023791566162E12	1.0	10.820538346670748	92.41684359518756	1820.5128205128203	101.93281363915581	28.6879314661026	
1.5796023791761475E12	1.0	10.825643578256818	92.37326102334356	1817.5824175824175	101.92197711296787	28.6879314661026	
1.5796023791956787E12	1.0	10.830748809842884	92.3297195380627	1819.047619047619	101.92739537101407	28.6879314661026	
1.57960237921521E12	1.0	10.815433115084682	92.46046731177721	1816.8498168498168	101.9355227770125	28.6879314661026	
1.5796023792347412E12	1.0	10.815433115084682	92.46046731177721	1809.5238095238094	101.92468624072903	28.6879314661026	
1.5796023792542725E12	1.0	10.810327883498614	92.50413223140497	1808.058608058608	101.92739537101407	28.6879314661026	
1.5796023792738037E12	1.0	10.810327883498614	92.50413223140497	1805.128205128205	101.93281363915581	28.6879314661026	
1.579602379293335E12	1.0	10.805222651912546	92.54783841247344	1803.6630036630036	101.92739537101407	28.6879314661026	
1.5796023793128662E12	1.0	10.805222651912546	92.54783841247344	1806.5934065934064	101.92468624072903	28.6879314661026	
1.5796023793323975E12	1.0	10.800117420326478	92.59158591349563	1806.5934065934064	101.92739537101407	28.6879314661026	
1.5796023793519287E12	1.0	10.800117420326478	92.59158591349563	1802.9304029304028	101.92468624072903	28.6879314661026	
1.57960237937146E12	1.0	10.789906957154344	92.6792051100071	1799.2673992673992	101.92739537101407	28.6879314661026	
1.5796023793909912E12	1.0	10.789906957154344	92.6792051100071	1794.8717948717947	101.92468624072903	28.6879314661026	
1.5796023794105225E12	1.0	10.789906957154344	92.6792051100071	1789.7435897435896	101.93010450382299	28.6879314661026	
1.5796023794300537E12	1.0	10.784801725568276	92.72307692307693	1775.091575091575	101.92468624072903	28.6879314661026	
1.579602379449585E12	1.0	10.779696493982208	92.76699029126215	1778.7545787545787	101.92468624072903	28.6879314661026	
1.5796023794691162E12	1.0	10.779696493982208	92.76699029126215	1784.6153846153845	101.93010450382299	28.6879314661026	
1.5796023794886475E12	1.0	10.77459126239614	92.81094527363184	1786.8131868131868	101.92468624072903	28.6879314661026	
1.5796023795081787E12	1.0	10.77459126239614	92.81094527363184	1786.8131868131868	101.93010450382299	28.6879314661026	
1.57960237952771E12	1.0	10.769486030810071	92.85494192936716	1786.8131868131868	101.92739537101407	28.6879314661026	
1.5796023795472412E12	1.0	10.769486030810071	92.85494192936716	1784.6153846153845	101.9192679877306	28.6879314661026	
1.5796023795667725E12	1.0	10.764380799224003	92.89898031776146	1783.8827838827838	101.92739537101407	28.6879314661026	
1.5796023795863037E12	1.0	10.764380799224003	92.89898031776146	1786.080586080586	101.92468624072903	28.6879314661026	
1.579602379605835E12	1.0	10.759275567637937	92.94306049822065	1786.080586080586	101.92468624072903	28.6879314661026	
1.5796023796253662E12	1.0	10.754170336051867	92.98718253026348	1785.3479853479853	101.92197711296787	28.6879314661026	
1.5796023796448975E12	1.0	10.754170336051867	92.98718253026348	1778.7545787545787	101.92739537101407	28.6879314661026	
1.5796023796644287E12	1.0	10.754170336051867	92.98718253026348	1777.2893772893772	101.9192679877306	28.6879314661026	
1.57960237968396E12	1.0	10.749065104465801	93.03134647352174	1777.2893772893772	101.92468624072903	28.6879314661026	
1.5796023797034912E12	1.0	10.749065104465801	93.03134647352174	1775.8241758241757	101.92197711296787	28.6879314661026	
1.5796023797230225E12	1.0	10.743959872879733	93.07555238774056	1772.8937728937728	101.92739537101407	28.6879314661026	
1.5796023797425537E12	1.0	10.743959872879733	93.07555238774056	1773.6263736263736	101.92468624072903	28.6879314661026	
1.579602379762085E12	1.0	10.743959872879733	93.07555238774056	1773.6263736263736	101.9355227770125	28.6879314661026	
1.5796023797816162E12	1.0	10.743959872879733	93.07555238774056	1772.8937728937728	101.93800556937916	28.702711447147884	
1.5796023798011475E12	1.0	10.738854641293665	93.11980033277871	1772.8937728937728	101.9190412021589	28.702711447147884	
1.5796023798206787E12	1.0	10.738854641293665	93.11980033277871	1769.9633699633698	101.93800556937916	28.702711447147884	
1.57960237984021E12	1.0	10.733749409707597	93.16409036860881	1769.230769230769	101.92445958017326	28.702711447147884	
1.5796023798597412E12	1.0	10.733749409707597	93.16409036860881	1767.032967032967	101.92987796828362	28.702711447147884	
1.5796023798792725E12	1.0	10.738854641293665	93.11980033277871	1766.3003663003662	101.92987796828362	28.702711447147884	
1.5796023798988037E12	1.0	10.738854641293665	93.11980033277871	1765.5677655677655	101.92716877296645	28.702711447147884	
1.579602379918335E12	1.0	10.733749409707597	93.16409036860881	1765.5677655677655	101.92445958017326	28.702711447147884	
1.5796023799378662E12	1.0	10.733749409707597	93.16409036860881	1765.5677655677655	101.92987796828362	28.702711447147884	
1.5796023799573975E12	1.0	10.733749409707597	93.16409036860881	1765.5677655677655	101.92716877296645	28.702711447147884	
1.5796023799769287E12	1.0	10.733749409707597	93.16409036860881	1765.5677655677655	101.92175038990408	28.702711447147884	
1.57960237999646E12	1.0	10.733749409707597	93.16409036860881	1764.8351648351647	101.92987796828362	28.702711447147884	
1.5796023800159912E12	1.0	10.738854641293665	93.11980033277871	1764.8351648351647	101.92445958017326	28.702711447147884	
1.5796023800355225E12	1.0	10.738854641293665	93.11980033277871	1765.5677655677655	101.92716877296645	28.702711447147884	
1.5796023800550537E12	1.0	10.738854641293665	93.11980033277871	1766.3003663003662	101.92716877296645	28.702711447147884	
1.579602380074585E12	1.0	10.749065104465801	93.03134647352174	1766.3003663003662	101.92987796828362	28.702711447147884	
1.5796023800941162E12	1.0	10.749065104465801	93.03134647352174	1767.7655677655675	101.92716877296645	28.702711447147884	
1.5796023801136475E12	1.0	10.754170336051867	92.98718253026348	1768.4981684981683	101.92445958017326	28.702711447147884	
1.5796023801331787E12	1.0	10.759275567637937	92.94306049822065	1772.8937728937728	101.92716877296645	28.702711447147884	
1.57960238015271E12	1.0	10.764380799224003	92.89898031776146	1775.091575091575	101.92987796828362	28.702711447147884	
1.5796023801722412E12	1.0	10.77459126239614	92.81094527363184	1779.4871794871794	101.92716877296645	28.702711447147884	
1.5796023801917725E12	1.0	10.769486030810071	92.85494192936716	1783.8827838827838	101.92987796828362	28.702711447147884	
1.5796023802113037E12	1.0	10.789906957154344	92.6792051100071	1783.150183150183	101.93258716612479	28.702711447147884	
1.579602380230835E12	1.0	10.805222651912546	92.54783841247344	1788.278388278388	101.92987796828362	28.702711447147884	
1.5796023802503662E12	1.0	10.810327883498614	92.50413223140497	1797.8021978021977	101.92716877296645	28.702711447147884	
1.5796023802698975E12	1.0	10.825643578256818	92.37326102334356	1800.7326007326005	101.93258716612479	28.702711447147884	
1.5796023802894287E12	1.0	10.84095927301502	92.24275959500825	1809.5238095238094	101.92987796828362	28.702711447147884	
1.57960238030896E12	1.0	10.856274967773224	92.11262638137786	1816.117216117216	101.92445958017326	28.702711447147884	
1.5796023803284912E12	1.0	10.871590662531428	91.9828598262503	1824.9084249084249	101.92987796828362	28.702711447147884	
1.5796023803480225E12	1.0	10.886906357289632	91.85345838218055	1831.5018315018315	101.93258716612479	28.702711447147884	
1.5796023803675537E12	1.0	10.907327283633906	91.68148841563303	1842.4908424908424	101.92445958017326	28.702711447147884	
1.579602380387085E12	1.0	10.922642978392108	91.55293292825425	1718.6813186813185	101.92445958017326	28.702711447147884	
1.5796023804066162E12	1.0	10.948169136322448	91.33947307064582	1660.07326007326	101.92716877296645	28.702711447147884	
1.5796023804261475E12	1.0	10.96348483108065	91.21187427240977	1637.3626373626373	101.92716877296645	28.702711447147884	
1.5796023804456787E12	1.0	10.978800525838855	91.0846314810509	1627.106227106227	101.92716877296645	28.702711447147884	
1.57960238046521E12	1.0	10.994116220597057	90.95774320872997	1625.6410256410256	101.92716877296645	28.702711447147884	
1.5796023804847412E12	1.0	11.01453714694133	90.78910776361529	1625.6410256410256	101.92445958017326	28.702711447147884	
1.5796023805042725E12	1.0	11.029852841699533	90.6630409627401	1629.3040293040292	101.92987796828362	28.702711447147884	
1.5796023805238037E12	1.0	11.055378999629871	90.45370584160702	1638.095238095238	101.92987796828362	28.702711447147884	
1.579602380543335E12	1.0	11.075799925974144	90.28693247292001	1644.6886446886447	101.92445958017326	28.702711447147884	
1.5796023805628662E12	1.0	11.096220852318414	90.1207729468599	1652.7472527472526	101.92716877296645	28.702711447147884	
1.5796023805823975E12	1.0	11.111536547076616	89.99655410062026	1660.8058608058607	101.93258716612479	28.702711447147884	
1.5796023806019287E12	1.0	11.131957473420888	89.8314606741573	1671.0622710622708	101.92716877296645	28.702711447147884	
1.57960238062146E12	1.0	11.152378399765162	89.66697184710459	1681.3186813186812	101.93258716612479	28.702711447147884	
1.5796023806409912E12	1.0	11.167694094523364	89.544	1690.8424908424906	101.92716877296645	28.702711447147884	
1.5796023806605225E12	1.0	11.193220252453703	89.33979475484607	1697.4358974358972	101.92716877296645	28.702711447147884	
1.5796023806800537E12	1.0	11.208535947211905	89.2177180596675	1708.4249084249084	101.92716877296645	28.702711447147884	
1.579602380699585E12	1.0	11.223851641970109	89.09597452808732	1715.018315018315	101.92445958017326	28.702711447147884	
1.5796023807191162E12	1.0	11.244272568314381	88.93416572077184	1721.6117216117216	101.92445958017326	28.702711447147884	
1.5796023807386475E12	1.0	11.259588263072583	88.81319428700975	1729.6703296703295	101.92987796828362	28.702711447147884	
1.5796023807581787E12	1.0	11.274903957830787	88.69255150554675	1735.5311355311353	101.92987796828362	28.702711447147884	
1.57960238077771E12	1.0	11.290219652588991	88.57223603888764	1745.054945054945	101.93070550614146	28.707638108078392	
1.5796023807972412E12	1.0	11.300430115761126	88.49220691213011	1751.6483516483515	101.93070550614146	28.707638108078392	
1.5796023808167725E12	1.0	11.31574581051933	88.37243401759531	1757.5091575091574	101.93070550614146	28.707638108078392	
1.5796023808363037E12	1.0	11.325956273691466	88.29276538201488	1767.032967032967	101.92257786272961	28.707638108078392	
1.579602380855835E12	1.0	11.34127196844967	88.17353139770425	1773.6263736263736	101.93612394770288	28.707638108078392	
1.5796023808753662E12	1.0	11.351482431621804	88.09422082302676	1778.7545787545787	101.93070550614146	28.707638108078392	
1.5796023808948975E12	1.0	11.36169289479394	88.01505279712424	1786.080586080586	101.92799628914682	28.707638108078392	
1.5796023809144287E12	1.0	11.371903357966076	87.93602693602693	1790.4761904761904	101.93070550614146	28.707638108078392	
1.57960238093396E12	1.0	11.38211382113821	87.85714285714286	1796.3369963369962	101.92528707467619	28.707638108078392	
1.5796023809534912E12	1.0	11.392324284310348	87.77840017925162	1800.7326007326005	101.93612394770288	28.707638108078392	
1.5796023809730225E12	1.0	11.402534747482482	87.69979852249833	1806.5934065934064	101.93883317226963	28.707638108078392	
1.5796023809925537E12	1.0	11.412745210654618	87.62133750838738	1811.7216117216117	101.93612394770288	28.707638108078392	
1.579602381012085E12	1.0	11.422955673826753	87.54301675977653	1817.5824175824175	101.93070550614146	28.707638108078392	
1.5796023810316162E12	1.0	11.42806090541282	87.50390886754523	1822.7106227106226	101.93070550614146	28.707638108078392	
1.5796023810511475E12	1.0	11.438271368584957	87.42579781298818	1828.5714285714284	101.93341472566014	28.707638108078392	
1.5796023810706787E12	1.0	11.443376600171026	87.38679455721615	1835.164835164835	101.92799628914682	28.707638108078392	
1.57960238109021E12	1.0	11.448481831757093	87.34782608695653	1838.095238095238	101.92528707467619	28.707638108078392	
1.5796023811097412E12	1.0	11.453587063343162	87.30889235569423	1841.7582417582416	101.93612394770288	28.707638108078392	
1.5796023811292725E12	1.0	11.463797526515297	87.2311289245157	1844.6886446886447	101.92799628914682	28.707638108078392	
1.5796023811488037E12	1.0	11.468902758101365	87.19229913198309	1847.6190476190475	101.93341472566014	28.707638108078392	
1.579602381168335E12	1.0	11.474007989687431	87.15350389321469	1852.0146520146518	101.92799628914682	28.707638108078392	
1.5796023811878662E12	1.0	11.4791132212735	87.11474316210807	1854.9450549450548	101.93070550614146	28.707638108078392	
1.5796023812073975E12	1.0	11.484218452859567	87.07601689264281	1860.07326007326	101.93341472566014	28.707638108078392	
1.5796023812269287E12	1.0	11.484218452859567	87.07601689264281	1860.07326007326	101.93070550614146	28.707638108078392	
1.57960238124646E12	1.0	11.489323684445635	87.03732503888025	1860.07326007326	101.92799628914682	28.707638108078392	
1.5796023812659912E12	1.0	11.489323684445635	87.03732503888025	1863.7362637362637	101.93070550614146	28.707638108078392	
1.5796023812855225E12	1.0	11.489323684445635	87.03732503888025	1865.201465201465	101.93070550614146	28.707638108078392	
1.5796023813050537E12	1.0	11.489323684445635	87.03732503888025	1867.3992673992673	101.92528707467619	28.707638108078392	
1.579602381324585E12	1.0	11.484218452859567	87.07601689264281	1868.131868131868	101.93070550614146	28.707638108078392	
1.5796023813441162E12	1.0	11.474007989687431	87.15350389321469	1865.201465201465	101.93070550614146	28.707638108078392	
1.5796023813636475E12	1.0	11.45869229492923	87.2699933169971	1862.2710622710622	101.92799628914682	28.707638108078392	
1.5796023813831787E12	1.0	11.443376600171026	87.38679455721615	1857.8754578754576	101.93070550614146	28.707638108078392	
1.57960238140271E12	1.0	11.438271368584957	87.42579781298818	1849.8168498168498	101.94154239936044	28.707638108078392	
1.5796023814222412E12	1.0	11.42806090541282	87.50390886754523	1846.8864468864467	101.93612394770288	28.707638108078392	
1.5796023814417725E12	1.0	11.42806090541282	87.50390886754523	1843.2234432234432	101.93341472566014	28.707638108078392	
1.5796023814613037E12	1.0	11.42806090541282	87.50390886754523	1840.2930402930401	101.93070550614146	28.707638108078392	
1.579602381480835E12	1.0	11.422955673826753	87.54301675977653	1837.3626373626373	101.93612394770288	28.707638108078392	
